164.219626
-29.109838
-68.021968
113.936449
45.923364
75.570093
60.746729
47.376636
31.681308
15.695327
0.581308
-14.554919
-38.912130
-46.041070
-56.437440
-68.319007
-84.062082
-99.508118
-110.201528
-119.112703
-134.558739
-149.113658
-160.995224
-171.094556
-186.837631
-203.174785
-218.620821
-227.829035
-237.928367
-248.918816
-258.127030
-264.958930
-272.681948
-276.840497
-281.593123
-293.177650
-300.603629
-305.059217
-308.029608
-305.356256
-307.138491
-304.465138
-306.544413
-305.356256
-304.465138
-304.168099
-303.574021
-300.900669
-296.742120
-291.395415
-290.801337
-287.533906
-275.652340
-272.087870
-256.344795
-250.404011
-241.195798
-233.175740
-218.917861
-204.659981
-190.105062
-179.411652
-164.856734
-147.925501
-132.776504
-119.409742
-98.022923
-80.200573
-64.160458
-49.902579
-36.238777
-19.010506
-0.000000
15.114019
26.740187
41.272897
55.805607
65.978505
82.255140
90.684112
106.088785
118.586916
124.109346
139.223364
152.884112
161.603738
174.392523
186.890654
199.098131
213.049533
226.710280
235.720561
245.312150
253.450467
262.751402
263.623364
270.889720
280.481308
286.003738
295.595327
303.442991
306.930841
305.477570
307.512150
311.000000
307.802804
308.384112
309.837383
308.384112
306.349533
303.152336
301.989720
299.664486
296.467290
291.235514
283.969159
281.643925
274.377570
266.239252
255.194393
247.346729
236.883178
225.547664
213.340187
200.842056
187.471963
174.683178
157.825234
144.745794
131.375701
114.517757
97.950467
81.092523
68.303738
52.608411
35.750467
20.927103
4.941121
-9.208214
-23.169054
-37.723973
-51.684814
-64.457498
-79.012416
-92.379179
-106.042980
-116.142311
-128.914995
-141.687679
-155.351480
-167.827125
-179.411652
-194.857689
-209.709647
-221.591213
-231.690544
-240.601719
-248.027698
-258.721108
-267.335244
-272.384909
-280.999045
-287.830946
-294.365807
-299.712512
-305.059217
-308.326648
-309.217765
-309.217765
-309.217765
-309.217765
-309.217765
-308.326648
-308.623687
-305.059217
-302.088825
-298.227316
-296.148042
-290.801337
-285.751671
-280.107927
-273.276027
-263.176695
-254.562560
-243.869150
-233.175740
-222.185291
-208.521490
-194.263610
-181.787966
-166.044890
-150.004776
-137.232092
-121.489016
-102.478510
-85.844317
-68.616046
-52.872970
-36.832856
-21.386819
-5.940783
9.882243
23.252336
38.366355
51.155140
63.362617
75.570093
88.940187
101.728972
112.483178
123.818692
136.316822
149.686916
162.475701
172.357944
184.274766
199.098131
213.340187
222.931776
230.779439
240.080374
248.800000
258.972897
265.367290
273.214953
279.900000
287.747664
294.723364
301.117757
304.024299
304.314953
306.349533
307.802804
307.512150
306.349533
306.930841
307.221495
305.768224
303.152336
301.989720
299.083178
295.304673
290.363551
284.550467
279.900000
272.633645
263.332710
254.613084
245.893458
234.557944
224.385047
212.468224
199.970093
186.018692
173.229907
157.243925
145.327103
130.503738
113.355140
95.915888
79.057944
64.234579
49.992523
33.715888
19.473832
3.197196
-10.099331
-25.842407
-39.209169
-53.467049
-67.427889
-81.091691
-93.270296
-106.340019
-117.924546
-130.697230
-142.875836
-157.430755
-168.124164
-180.005731
-196.639924
-211.194842
-223.076409
-231.393505
-241.789876
-250.106972
-260.503343
-266.444126
-274.761223
-282.781280
-288.127985
-294.959885
-301.791786
-305.356256
-306.544413
-309.217765
-310.108883
-308.326648
-311.000000
-308.029608
-308.920726
-307.732569
-302.979943
-303.276982
-300.306590
-296.742120
-290.207259
-283.969436
-279.216810
-271.196753
-263.473734
-253.968481
-244.166189
-233.769819
-221.294174
-210.006686
-195.748806
-181.193887
-166.936008
-150.598854
-136.935053
-120.894938
-102.775549
-84.656160
-69.210124
-52.872970
-37.723973
-20.792741
-5.940783
9.010280
23.833645
38.366355
49.992523
63.943925
76.442056
90.102804
101.438318
113.064486
124.690654
136.898131
149.396262
160.731776
172.067290
183.984112
198.516822
212.468224
222.931776
232.232710
240.952336
250.834579
258.682243
266.239252
273.505607
280.771963
289.491589
295.885981
300.245794
305.186916
304.605607
306.349533
307.512150
307.802804
307.802804
308.093458
307.802804
305.186916
302.861682
300.827103
298.501869
294.432710
289.491589
285.713084
279.318692
270.308411
263.332710
253.741121
245.893458
234.848598
223.513084
211.014953
199.098131
184.274766
169.451402
155.500000
143.001869
127.306542
108.995327
93.009346
77.314019
60.746729
45.923364
31.100000
15.404673
-0.297039
-14.257880
-28.218720
-41.882521
-56.734479
-68.913085
-83.468004
-96.240688
-108.122254
-121.191977
-132.776504
-146.737345
-160.401146
-169.906399
-182.976122
-198.719198
-212.977077
-224.858644
-233.472779
-242.978032
-250.998090
-260.503343
-267.929322
-274.464183
-283.672397
-289.019102
-297.633238
-301.494747
-305.653295
-308.326648
-308.326648
-309.514804
-310.108883
-307.732569
-308.029608
-308.326648
-307.435530
-304.762178
-302.385864
-300.306590
-295.553964
-290.801337
-285.157593
-278.919771
-270.305635
-261.691500
-251.889207
-244.760267
-232.878701
-222.185291
-208.224451
-195.451767
-180.599809
-164.262655
-149.410697
-135.746896
-120.300860
-102.181471
-84.656160
-68.913085
-53.170010
-38.021012
-21.980898
-5.346705
9.300935
23.542991
37.785047
52.027103
64.525234
77.023364
89.812150
102.310280
113.645794
125.271963
137.479439
148.814953
163.057009
171.776636
184.856075
200.260748
213.630841
224.675701
232.814019
241.242991
252.287850
258.972897
267.111215
274.958879
282.515888
289.200935
296.467290
299.373832
303.152336
305.477570
305.768224
308.093458
307.802804
307.512150
308.384112
306.640187
305.768224
304.024299
301.117757
298.211215
295.304673
289.491589
283.387850
278.156075
270.599065
261.007477
252.287850
243.277570
233.395327
222.059813
210.724299
197.063551
183.402804
170.614019
154.628037
141.548598
124.690654
107.251402
92.137383
75.279439
61.909346
44.760748
30.518692
14.532710
-0.891117
-14.851958
-30.297994
-43.664756
-56.437440
-70.398281
-84.359121
-96.240688
-108.122254
-120.597899
-133.667622
-145.846227
-160.104107
-172.282713
-184.461318
-200.204394
-213.274117
-223.670487
-233.472779
-242.978032
-251.592168
-261.691500
-268.523400
-276.246418
-283.078319
-291.692455
-296.148042
-301.494747
-305.653295
-308.326648
-307.435530
-310.108883
-309.217765
-309.514804
-307.732569
-308.623687
-305.950334
-303.871060
-302.682904
-300.009551
-295.256925
-289.910220
-283.969436
-278.919771
-271.196753
-261.691500
-253.671442
-244.166189
-230.799427
-220.997135
-207.927412
-194.263610
-181.193887
-165.153773
-150.895893
-136.638013
-119.409742
-101.587393
-85.250239
-70.695320
-53.170010
-38.615091
-21.980898
-5.940783
9.010280
23.833645
37.785047
50.283178
63.362617
75.860748
89.812150
101.438318
112.773832
122.946729
137.188785
148.524299
162.475701
172.067290
184.856075
199.679439
212.177570
222.641121
231.942056
241.824299
251.415888
260.426168
266.820561
274.377570
282.515888
289.491589
297.629907
300.245794
304.605607
306.349533
307.221495
307.512150
307.802804
306.058879
307.512150
307.512150
304.896262
303.442991
301.117757
298.792523
294.142056
289.200935
283.969159
277.865421
269.436449
260.426168
252.287850
242.986916
233.395327
221.769159
210.433645
196.772897
183.112150
168.288785
153.465421
142.420561
127.306542
108.414019
90.974766
74.698131
60.165421
45.342056
27.612150
13.079439
-1.188157
-16.634193
-30.595033
-43.367717
-58.219675
-71.586437
-83.170965
-96.537727
-108.419293
-120.894938
-132.776504
-147.331423
-160.104107
-170.500478
-184.164279
-200.204394
-214.165234
-224.858644
-234.066858
-242.978032
-251.889207
-261.097421
-267.335244
-276.840497
-283.078319
-291.098376
-298.821394
-302.385864
-305.653295
-306.841452
-308.920726
-309.217765
-308.920726
-308.623687
-309.514804
-306.841452
-306.247373
-305.356256
-302.088825
-299.118434
-295.851003
-289.910220
-284.266476
-277.731614
-268.820439
-261.988539
-252.780325
-242.680993
-232.581662
-219.511939
-207.333333
-194.857689
-177.035339
-164.559694
-148.816619
-135.449857
-119.706781
-100.102197
-82.873926
-68.021968
-50.793696
-36.535817
-19.604585
-4.752627
10.754206
24.124299
39.528972
51.736449
65.397196
78.185981
90.393458
104.344860
114.808411
125.271963
138.060748
151.140187
163.057009
173.520561
186.890654
202.295327
215.956075
226.128972
233.976636
243.277570
253.450467
261.298131
268.273832
275.830841
283.969159
290.944860
297.048598
301.699065
303.733645
306.640187
305.768224
307.802804
307.802804
308.093458
306.640187
306.930841
305.477570
303.152336
300.827103
298.501869
295.304673
289.200935
283.387850
278.446729
269.145794
260.426168
251.997196
242.405607
231.942056
219.734579
208.980374
195.319626
182.240187
166.835514
153.174766
139.223364
121.784112
105.216822
88.358879
73.535514
58.130841
42.726168
27.321495
12.207477
-4.158548
-17.822350
-31.783190
-45.744031
-59.110793
-73.071633
-86.141356
-99.211079
-111.389685
-122.677173
-136.043935
-149.707736
-162.480420
-172.579752
-185.352436
-201.986628
-215.947469
-225.155683
-234.957975
-245.057307
-253.077364
-262.582617
-268.226361
-276.840497
-283.672397
-290.504298
-298.524355
-302.979943
-305.653295
-307.138491
-309.217765
-309.514804
-309.217765
-308.623687
-309.514804
-309.217765
-305.356256
-304.762178
-302.385864
-299.118434
-295.256925
-289.019102
-283.969436
-278.028653
-268.820439
-260.503343
-250.998090
-242.383954
-231.987584
-218.917861
-207.333333
-193.372493
-177.926457
-164.262655
-148.222541
-134.261700
-117.924546
-99.508118
-82.279847
-67.130850
-52.575931
-36.535817
-20.792741
-4.455587
10.754206
24.705607
38.947664
50.573832
65.687850
77.604673
90.684112
102.310280
112.483178
125.853271
138.932710
150.268224
163.347664
172.939252
185.728037
202.295327
215.665421
224.675701
234.557944
243.568224
251.706542
261.588785
267.983178
276.121495
283.097196
289.782243
297.339252
301.699065
303.442991
306.349533
307.221495
308.093458
308.093458
308.384112
307.512150
306.349533
304.605607
304.024299
301.989720
298.501869
294.142056
289.200935
282.806542
275.830841
269.727103
259.844860
251.706542
241.533645
231.360748
220.315888
208.689720
194.447664
181.949533
165.963551
153.174766
138.351402
122.074766
104.635514
87.196262
72.082243
57.840187
41.854206
27.030841
10.463551
-3.861509
-17.228271
-32.674308
-45.744031
-59.407832
-72.774594
-85.547278
-98.617001
-110.201528
-122.677173
-135.449857
-148.816619
-161.886342
-171.391595
-186.243553
-202.283668
-214.759312
-226.343840
-234.957975
-244.463228
-251.592168
-261.691500
-269.414518
-275.949379
-284.860554
-291.098376
-297.336199
-302.088825
-304.465138
-306.544413
-308.029608
-307.732569
-308.326648
-308.326648
-308.623687
-306.841452
-305.950334
-303.574021
-301.197708
-299.118434
-293.474690
-288.425024
-281.593123
-276.840497
-268.226361
-258.424069
-251.295129
-240.007641
-230.799427
-217.729704
-205.551098
-192.184336
-177.035339
-163.371538
-147.925501
-132.776504
-117.627507
-100.102197
-82.279847
-65.051576
-50.199618
-35.050621
-18.416428
-2.673352
11.044860
25.577570
40.400935
53.189720
66.850467
79.057944
90.974766
104.635514
115.389720
128.178505
139.514019
152.593458
165.382243
175.555140
189.215888
203.457944
217.990654
226.710280
236.011215
245.021495
253.450467
261.588785
270.308411
277.865421
285.422430
292.688785
297.920561
301.989720
306.058879
306.930841
308.384112
307.802804
308.384112
307.512150
306.640187
306.930841
305.186916
303.733645
300.536449
297.920561
295.304673
288.619626
283.097196
276.993458
267.692523
259.554206
250.543925
242.114953
231.942056
219.734579
207.236449
193.866355
179.624299
164.510280
150.849533
136.026168
118.586916
102.019626
84.289720
70.047664
54.642991
39.238318
24.996262
8.138318
-6.237822
-20.198663
-34.456543
-48.417383
-62.675263
-76.339064
-87.923591
-101.884432
-113.468959
-125.647564
-137.826170
-151.489971
-164.559694
-174.659026
-189.213945
-204.362942
-217.432665
-227.531996
-235.849093
-246.542502
-253.671442
-263.176695
-269.711557
-278.028653
-284.266476
-292.583572
-298.227316
-302.682904
-305.356256
-307.732569
-307.732569
-309.811843
-309.514804
-308.920726
-308.623687
-307.138491
-305.653295
-302.979943
-300.603629
-297.930277
-294.365807
-287.830946
-283.078319
-275.949379
-267.335244
-259.315186
-250.404011
-240.898758
-229.908309
-217.135626
-204.065903
-190.105062
-176.738300
-159.510029
-145.846227
-132.776504
-115.548233
-98.914040
-81.091691
-64.754537
-49.308500
-33.862464
-16.931232
-1.188157
12.788785
27.321495
41.854206
54.061682
67.141121
80.801869
93.881308
105.798131
117.133645
129.341121
140.676636
153.465421
165.091589
175.555140
189.506542
204.620561
217.700000
227.582243
236.592523
245.893458
254.903738
261.879439
269.145794
276.702804
282.806542
293.270093
296.757944
302.280374
305.186916
306.349533
308.384112
308.674766
308.674766
307.802804
308.384112
307.221495
304.605607
303.733645
300.536449
297.920561
293.560748
289.491589
282.225234
276.121495
267.692523
260.716822
250.834579
241.242991
231.942056
218.281308
205.783178
194.157009
179.333645
165.382243
150.558879
136.316822
121.202804
101.438318
85.452336
70.047664
55.514953
38.947664
25.577570
8.428972
-6.831901
-19.307545
-35.347660
-48.417383
-61.487106
-75.447947
-88.220630
-99.805158
-112.280802
-123.865330
-137.826170
-150.004776
-162.777459
-174.064947
-187.728749
-203.768863
-216.541547
-226.937918
-235.849093
-244.760267
-254.265521
-261.691500
-269.711557
-276.246418
-286.048711
-292.880611
-298.227316
-302.682904
-306.247373
-308.029608
-307.435530
-308.623687
-309.514804
-307.732569
-307.435530
-306.544413
-304.465138
-302.088825
-300.603629
-298.227316
-292.286533
-287.533906
-281.296084
-275.058262
-266.741165
-257.829990
-248.621777
-238.522445
-228.126074
-216.838586
-204.362942
-188.916905
-175.550143
-158.915950
-145.549188
-132.479465
-114.657116
-95.943649
-80.497612
-65.051576
-48.714422
-32.377268
-16.634193
-0.594078
12.788785
27.612150
42.144860
54.642991
68.013084
80.801869
94.171963
108.414019
117.424299
129.341121
142.129907
154.046729
165.672897
178.171028
189.797196
206.364486
218.281308
227.000935
237.173832
245.312150
255.485047
262.751402
269.727103
278.446729
284.841121
293.560748
299.664486
303.733645
307.221495
307.221495
308.674766
307.512150
308.093458
308.384112
308.093458
307.221495
305.768224
303.733645
301.989720
297.629907
293.560748
288.038318
283.097196
275.830841
267.111215
258.100935
250.543925
240.080374
229.326168
218.281308
205.201869
191.250467
177.299065
161.603738
147.652336
135.444860
117.714953
99.985047
83.999065
68.594393
52.027103
39.819626
22.380374
7.266355
-7.723018
-22.277937
-36.535817
-49.011461
-63.269341
-77.527221
-90.002865
-103.369628
-114.360076
-126.538682
-139.311366
-153.272206
-164.856734
-176.144222
-190.105062
-206.145177
-218.026743
-228.720153
-235.849093
-246.542502
-254.859599
-264.067813
-270.899713
-278.622732
-284.266476
-292.286533
-298.821394
-303.276982
-306.247373
-308.029608
-308.326648
-309.514804
-307.732569
-307.732569
-307.138491
-306.247373
-306.247373
-304.168099
-301.791786
-297.633238
-293.771729
-287.236867
-281.296084
-274.167144
-266.147087
-256.344795
-248.324737
-239.116523
-227.234957
-215.947469
-201.986628
-187.728749
-174.361987
-158.618911
-144.361032
-130.400191
-113.468959
-95.052531
-79.012416
-62.378223
-47.526266
-32.377268
-15.446036
0.290654
14.823364
28.484112
42.435514
56.386916
70.047664
82.836449
94.753271
106.088785
117.714953
130.503738
142.129907
154.918692
167.416822
177.589720
191.541121
206.364486
219.153271
227.872897
237.173832
246.765421
256.357009
263.042056
271.180374
278.737383
287.166355
295.014019
300.245794
304.314953
305.768224
307.512150
307.802804
309.546729
308.965421
307.802804
308.093458
307.221495
305.186916
302.861682
300.536449
297.629907
292.979439
287.166355
281.934579
276.121495
266.529907
258.391589
250.253271
238.627103
228.454206
217.118692
205.201869
190.669159
177.589720
160.731776
148.524299
134.282243
117.133645
99.403738
83.417757
69.175701
53.480374
36.622430
21.799065
5.813084
-8.911175
-23.466094
-37.129895
-50.496657
-64.160458
-78.121299
-90.002865
-102.181471
-114.360076
-126.241643
-139.014327
-152.678128
-163.371538
-175.253104
-190.402101
-205.848138
-218.323782
-228.720153
-238.225406
-245.651385
-255.750716
-263.770774
-270.899713
-278.919771
-286.345750
-292.286533
-298.524355
-302.682904
-305.950334
-307.435530
-307.138491
-306.544413
-307.732569
-307.435530
-307.435530
-307.138491
-304.168099
-302.979943
-300.009551
-296.148042
-291.692455
-286.642789
-280.702006
-274.464183
-265.553009
-256.344795
-247.433620
-238.225406
-227.531996
-214.759312
-202.283668
-188.025788
-173.173830
-158.618911
-145.252149
-130.400191
-114.360076
-95.349570
-78.121299
-62.972302
-46.635148
-30.297994
-16.040115
1.743925
14.823364
27.902804
43.598131
55.805607
69.757009
81.964486
94.171963
106.960748
118.005607
129.922430
142.129907
154.918692
167.998131
177.299065
191.541121
206.364486
218.862617
227.872897
238.917757
247.346729
257.228972
263.914019
271.761682
279.900000
287.166355
292.398131
299.373832
303.152336
305.768224
307.221495
308.674766
308.965421
308.384112
307.802804
307.802804
306.349533
305.477570
303.152336
300.536449
297.629907
292.979439
286.585047
282.225234
276.121495
266.239252
257.519626
249.381308
240.080374
228.744860
216.828037
202.585981
188.925234
174.683178
160.441121
146.780374
132.247664
114.808411
97.659813
81.092523
66.269159
50.283178
34.878505
19.764486
4.069159
-9.802292
-25.842407
-38.912130
-53.170010
-66.536772
-79.309456
-92.676218
-103.072588
-116.142311
-127.726839
-141.687679
-153.866285
-165.450812
-177.629417
-192.184336
-208.224451
-218.917861
-229.314231
-237.928367
-247.433620
-257.235912
-264.958930
-271.196753
-278.325692
-285.157593
-294.365807
-299.712512
-303.276982
-304.762178
-307.138491
-308.326648
-308.326648
-308.623687
-307.732569
-308.029608
-306.544413
-304.762178
-302.385864
-301.197708
-297.039160
-291.098376
-286.939828
-278.919771
-273.573066
-264.067813
-256.344795
-247.136581
-237.037249
-225.452722
-213.571156
-201.392550
-188.322827
-172.282713
-158.618911
-144.658071
-128.617956
-111.389685
-92.676218
-77.824260
-62.081184
-47.229226
-30.000955
-13.366762
1.743925
15.404673
29.356075
43.888785
57.258879
70.628972
82.545794
95.625234
107.832710
118.296262
131.375701
143.873832
155.790654
167.126168
177.589720
194.157009
207.236449
219.443925
229.035514
239.499065
247.928037
257.228972
265.076636
270.889720
279.900000
287.747664
295.014019
301.117757
303.442991
305.768224
306.930841
308.674766
307.221495
308.093458
308.674766
306.930841
306.058879
304.605607
302.861682
300.245794
297.048598
292.398131
286.294393
281.062617
274.668224
265.657944
257.228972
248.218692
238.045794
226.419626
214.502804
202.295327
188.925234
174.101869
159.859813
145.617757
130.794393
113.645794
97.369159
79.057944
64.525234
50.283178
33.715888
19.473832
2.034579
-11.287488
-27.624642
-40.694365
-53.764088
-67.130850
-79.606495
-93.567335
-106.042980
-117.924546
-131.291309
-143.172875
-155.648520
-166.936008
-178.223496
-194.560649
-207.927412
-220.403056
-228.720153
-239.116523
-248.621777
-258.127030
-265.255969
-271.790831
-281.296084
-287.533906
-294.068768
-300.603629
-304.168099
-305.653295
-307.732569
-309.514804
-309.514804
-308.920726
-307.732569
-308.029608
-307.138491
-305.059217
-302.682904
-299.712512
-297.039160
-291.395415
-286.345750
-279.810888
-271.493792
-264.067813
-254.859599
-245.948424
-235.552053
-224.858644
-212.382999
-199.313276
-185.352436
-170.500478
-156.539637
-141.390640
-127.132760
-108.716332
-92.082139
-75.447947
-58.813754
-44.555874
-28.218720
-12.475645
1.743925
16.276636
31.390654
45.923364
57.549533
70.919626
84.289720
96.497196
108.414019
120.912150
133.119626
144.455140
157.243925
167.998131
180.786916
195.610280
209.271028
221.187850
230.779439
241.242991
249.381308
258.972897
265.076636
272.052336
281.353271
289.782243
295.014019
300.245794
305.477570
306.349533
307.221495
308.674766
308.965421
309.256075
307.802804
308.384112
306.349533
304.605607
302.571028
300.827103
297.339252
292.398131
287.457009
281.643925
272.924299
265.076636
256.647664
248.218692
238.045794
227.291589
214.793458
204.039252
187.181308
174.392523
159.569159
146.489720
130.794393
113.064486
95.334579
79.057944
64.815888
51.445794
33.425234
18.020561
2.325234
-12.772684
-26.733524
-40.991404
-54.358166
-67.130850
-80.497612
-93.270296
-104.854823
-115.845272
-129.212034
-143.766953
-155.054441
-166.936008
-177.629417
-193.669532
-209.115568
-218.620821
-229.908309
-239.116523
-247.136581
-257.235912
-264.661891
-271.196753
-280.107927
-287.236867
-293.771729
-299.415473
-303.574021
-306.544413
-308.326648
-306.841452
-307.435530
-308.029608
-306.841452
-306.544413
-306.544413
-305.653295
-302.682904
-298.821394
-295.851003
-290.801337
-285.454632
-278.325692
-271.196753
-263.770774
-253.968481
-245.651385
-234.957975
-224.264565
-211.194842
-199.313276
-185.946514
-169.312321
-155.054441
-142.281757
-125.944604
-108.122254
-90.596944
-73.368672
-59.407832
-44.555874
-26.733524
-12.178606
4.069159
18.601869
32.843925
46.214019
59.584112
72.954206
84.871028
97.659813
108.995327
119.749533
133.410280
145.327103
156.953271
169.451402
181.077570
196.482243
210.724299
221.769159
230.488785
241.533645
249.090654
258.682243
265.948598
273.214953
283.387850
290.363551
295.014019
300.827103
305.186916
307.221495
308.093458
308.674766
309.837383
308.965421
308.674766
308.093458
306.930841
304.896262
303.442991
299.083178
296.467290
291.816822
286.875701
280.190654
273.796262
265.367290
256.357009
246.765421
236.883178
226.128972
213.049533
201.132710
186.890654
171.776636
158.115888
143.583178
128.178505
111.320561
93.300000
77.895327
63.071963
48.248598
31.681308
15.114019
0.581308
-14.851958
-30.000955
-41.882521
-55.546323
-68.913085
-82.279847
-95.349570
-106.340019
-117.924546
-132.479465
-144.955110
-158.321872
-169.609360
-180.302770
-196.342884
-210.600764
-222.185291
-230.502388
-241.195798
-249.215855
-257.829990
-265.553009
-271.790831
-280.702006
-288.425024
-294.365807
-300.009551
-303.871060
-308.326648
-307.732569
-308.623687
-307.138491
-308.920726
-307.732569
-307.138491
-306.247373
-303.871060
-302.385864
-300.009551
-295.851003
-291.395415
-284.266476
-278.622732
-270.602674
-264.067813
-253.968481
-244.166189
-233.769819
-222.482330
-211.194842
-198.422159
-184.758357
-168.718243
-153.866285
-141.093601
-124.459408
-107.528176
-89.111748
-73.071633
-57.625597
-43.070678
-26.139446
-10.099331
4.941121
20.055140
35.750467
47.376636
61.328037
73.244860
86.905607
98.241121
108.995327
120.912150
133.991589
147.071028
158.406542
170.323364
182.240187
197.935514
211.596262
222.350467
232.232710
242.114953
249.381308
260.135514
266.820561
275.249533
282.225234
289.782243
295.304673
301.117757
306.349533
306.640187
308.965421
308.674766
309.256075
308.093458
308.093458
308.093458
307.512150
303.733645
303.152336
299.083178
295.595327
290.654206
285.131776
279.318692
271.471028
264.495327
256.066355
246.474766
236.011215
225.547664
213.340187
199.388785
185.146729
171.485981
156.081308
140.967290
126.725234
109.867290
92.137383
76.732710
61.618692
47.085981
29.937383
15.114019
-1.188157
-15.743075
-28.812798
-43.961796
-56.734479
-71.586437
-84.953200
-96.537727
-108.122254
-119.112703
-132.479465
-145.846227
-157.430755
-168.421203
-181.490926
-197.234002
-211.491882
-222.185291
-230.799427
-242.680993
-249.512894
-258.424069
-267.038204
-273.276027
-280.702006
-289.316141
-296.148042
-302.088825
-304.168099
-307.435530
-306.841452
-308.326648
-308.326648
-308.623687
-308.623687
-308.326648
-306.544413
-302.979943
-301.791786
-300.306590
-295.851003
-290.207259
-283.375358
-277.137536
-270.305635
-263.176695
-253.671442
-244.760267
-233.769819
-222.185291
-210.006686
-196.936963
-182.085005
-168.421203
-152.084050
-139.014327
-123.568290
-105.448902
-87.032474
-72.774594
-57.031519
-41.585482
-23.169054
-10.990449
5.522430
20.927103
33.425234
48.248598
61.909346
73.826168
88.358879
100.275701
111.901869
121.784112
135.154206
147.942991
160.441121
171.485981
183.402804
197.354206
213.340187
223.222430
233.395327
242.405607
250.543925
259.554206
267.692523
276.993458
281.062617
288.910280
297.629907
302.280374
305.186916
307.221495
309.256075
309.546729
309.546729
309.546729
308.674766
308.384112
306.058879
304.314953
302.861682
299.664486
296.176636
290.944860
284.259813
279.609346
272.052336
262.751402
255.775701
245.312150
234.848598
223.803738
213.049533
199.388785
184.856075
171.195327
154.628037
142.711215
127.597196
108.704673
92.137383
76.732710
60.456075
45.923364
31.390654
14.823364
-0.594078
-14.851958
-29.406877
-42.179561
-56.140401
-70.398281
-83.170965
-95.943649
-107.231137
-118.815664
-131.291309
-146.440306
-159.807068
-169.015282
-182.085005
-197.531041
-211.788921
-221.591213
-232.284623
-241.789876
-251.295129
-259.315186
-264.958930
-272.978988
-281.296084
-289.316141
-294.365807
-300.306590
-303.871060
-306.247373
-308.029608
-307.435530
-306.544413
-307.435530
-306.247373
-307.435530
-305.356256
-304.168099
-302.682904
-298.821394
-294.365807
-289.910220
-282.781280
-277.137536
-269.711557
-261.394460
-253.077364
-244.166189
-233.769819
-222.482330
-209.115568
-195.748806
-181.787966
-167.233047
-152.381089
-138.717287
-122.974212
-106.042980
-88.220630
-72.477555
-54.655205
-40.694365
-24.951289
-7.723018
6.103738
20.055140
34.006542
47.957944
61.328037
74.116822
86.905607
100.275701
111.029907
122.365421
135.154206
147.071028
160.150467
171.776636
182.821495
199.970093
213.049533
225.257009
232.232710
242.986916
251.415888
259.844860
267.692523
275.830841
283.387850
291.235514
298.211215
301.699065
305.186916
307.512150
308.093458
308.093458
308.674766
308.965421
307.802804
307.802804
305.768224
303.733645
302.280374
299.373832
295.885981
290.654206
284.841121
279.318692
271.471028
261.879439
254.613084
245.021495
234.557944
222.931776
211.014953
198.807477
183.984112
169.160748
153.756075
140.095327
125.853271
108.414019
91.265421
75.570093
60.456075
44.470093
28.484112
12.207477
-2.970392
-15.743075
-30.892073
-45.149952
-58.516714
-72.774594
-86.141356
-97.725883
-110.498567
-121.786055
-134.261700
-147.925501
-160.401146
-170.500478
-182.679083
-199.016237
-212.977077
-224.561605
-231.987584
-242.978032
-251.592168
-260.206304
-267.929322
-274.167144
-281.890162
-289.613181
-295.851003
-302.088825
-303.574021
-305.356256
-308.326648
-307.138491
-308.920726
-308.920726
-307.435530
-306.247373
-303.871060
-304.465138
-301.494747
-299.712512
-294.662846
-289.613181
-284.860554
-277.434575
-269.711557
-261.394460
-252.186246
-243.869150
-232.878701
-220.106017
-208.818529
-195.748806
-181.490926
-167.530086
-152.381089
-138.420248
-122.974212
-104.557784
-87.626552
-71.289398
-53.764088
-39.209169
-23.169054
-8.317096
7.266355
20.345794
36.041121
48.539252
61.618692
75.279439
88.068224
100.275701
112.773832
124.109346
135.154206
148.233645
162.185047
170.904673
185.437383
199.970093
213.630841
223.513084
233.104673
243.568224
252.869159
261.007477
267.983178
275.830841
283.387850
289.782243
297.629907
301.989720
304.605607
308.093458
308.384112
307.512150
308.965421
308.965421
308.674766
307.221495
306.058879
304.024299
301.989720
298.211215
295.595327
289.491589
283.678505
277.574766
270.599065
261.007477
252.578505
244.440187
233.685981
222.350467
210.433645
197.063551
182.530841
167.126168
153.174766
140.385981
124.690654
106.088785
88.068224
72.954206
59.293458
42.726168
28.484112
11.335514
-3.267431
-17.822350
-32.674308
-46.932187
-59.704871
-73.368672
-87.329513
-98.022923
-111.092646
-123.271251
-135.449857
-149.113658
-161.292264
-170.797517
-185.055396
-200.501433
-213.571156
-224.858644
-233.769819
-241.789876
-252.780325
-260.503343
-267.038204
-274.761223
-281.890162
-289.910220
-297.039160
-301.197708
-305.950334
-306.841452
-308.920726
-308.920726
-307.138491
-308.029608
-308.920726
-308.623687
-305.356256
-304.465138
-301.494747
-299.118434
-294.068768
-289.316141
-283.969436
-276.543457
-269.414518
-259.315186
-250.998090
-242.383954
-229.908309
-219.511939
-206.739255
-193.372493
-180.302770
-163.074499
-151.489971
-136.043935
-120.597899
-101.587393
-84.359121
-68.913085
-54.061127
-37.723973
-20.495702
-5.940783
9.010280
22.961682
38.366355
50.573832
64.525234
76.732710
90.393458
102.600935
113.936449
124.109346
138.642056
151.430841
163.057009
172.648598
186.018692
201.132710
216.246729
225.547664
236.011215
244.440187
252.578505
261.007477
268.273832
276.702804
284.259813
291.526168
298.501869
303.733645
305.768224
308.093458
308.384112
309.837383
308.965421
308.674766
308.965421
307.221495
306.349533
303.442991
300.827103
299.373832
294.723364
290.363551
284.841121
278.737383
271.180374
261.007477
252.287850
242.986916
231.942056
221.769159
208.980374
196.482243
181.077570
167.707477
152.884112
139.804673
123.528037
105.216822
88.068224
73.244860
58.421495
42.726168
28.193458
10.172897
-3.267431
-18.416428
-33.268386
-46.932187
-60.595989
-73.071633
-87.032474
-98.022923
-109.310411
-121.786055
-136.340974
-148.222541
-160.698185
-171.688634
-184.164279
-199.610315
-213.868195
-224.858644
-233.472779
-242.086915
-252.780325
-261.988539
-267.929322
-275.355301
-285.157593
-291.098376
-297.039160
-303.276982
-304.168099
-306.247373
-308.029608
-308.326648
-307.732569
-308.029608
-308.326648
-306.544413
-305.059217
-302.979943
-300.900669
-297.930277
-292.880611
-287.830946
-281.593123
-276.543457
-267.632283
-259.315186
-250.998090
-240.898758
-230.502388
-218.026743
-207.333333
-194.857689
-178.817574
-164.856734
-150.301815
-136.340974
-119.409742
-101.290353
-85.250239
-68.913085
-52.872970
-37.723973
-20.792741
-3.564470
8.719626
23.833645
37.494393
50.864486
63.653271
75.860748
90.393458
101.728972
111.611215
125.271963
137.479439
150.558879
163.057009
172.939252
187.181308
201.714019
215.374766
225.257009
235.720561
243.858879
254.903738
261.879439
269.436449
277.865421
283.969159
292.688785
297.629907
301.699065
306.349533
307.512150
309.546729
308.965421
308.384112
308.965421
307.802804
307.512150
306.349533
304.314953
301.989720
298.501869
295.014019
289.782243
283.387850
277.574766
268.564486
261.007477
252.578505
242.986916
232.523364
220.897196
210.724299
195.900935
182.240187
167.998131
153.465421
139.223364
124.400000
105.507477
88.649533
73.535514
57.549533
43.016822
25.577570
9.882243
-5.940783
-19.010506
-34.159503
-47.229226
-60.595989
-73.962751
-87.626552
-98.617001
-110.498567
-122.083095
-134.558739
-148.222541
-160.104107
-171.985673
-185.055396
-200.204394
-213.274117
-223.967526
-233.472779
-243.869150
-252.780325
-261.988539
-267.038204
-274.167144
-283.375358
-290.504298
-295.851003
-302.088825
-304.465138
-306.247373
-308.326648
-306.544413
-308.029608
-306.841452
-306.544413
-306.841452
-304.168099
-303.276982
-300.009551
-297.336199
-292.880611
-287.830946
-281.593123
-275.355301
-267.038204
-257.829990
-250.701051
-239.710602
-229.908309
-217.135626
-204.362942
-192.778415
-177.035339
-163.074499
-148.519580
-135.152818
-117.330468
-98.022923
-82.873926
-65.942693
-50.496657
-35.644699
-19.010506
-2.970392
10.754206
25.577570
39.238318
53.189720
66.269159
78.476636
91.556075
104.344860
115.971028
127.597196
139.514019
152.012150
164.219626
174.683178
188.343925
204.329907
217.409346
226.419626
237.755140
243.568224
254.613084
263.042056
269.145794
278.156075
286.585047
292.398131
299.373832
302.571028
307.221495
306.930841
308.965421
308.965421
308.965421
309.256075
307.802804
306.930841
306.349533
304.314953
301.699065
298.792523
295.014019
289.491589
283.969159
276.412150
269.436449
261.007477
251.415888
241.533645
230.779439
219.734579
206.945794
193.866355
179.914953
163.928972
150.849533
138.060748
120.330841
101.728972
85.161682
70.047664
56.677570
39.819626
24.705607
6.975701
-6.831901
-21.089780
-34.753582
-48.417383
-61.487106
-76.933142
-90.002865
-101.587393
-112.874881
-124.459408
-137.232092
-151.489971
-163.371538
-174.064947
-188.025788
-202.877746
-214.759312
-226.640879
-234.957975
-244.760267
-253.077364
-261.988539
-268.226361
-275.355301
-283.969436
-291.098376
-298.227316
-302.385864
-305.059217
-306.841452
-308.920726
-308.623687
-306.841452
-308.920726
-307.435530
-306.247373
-305.356256
-303.871060
-301.197708
-297.633238
-293.474690
-287.830946
-281.296084
-274.167144
-266.741165
-257.829990
-248.621777
-240.007641
-229.314231
-217.135626
-204.362942
-190.996180
-176.144222
-161.589303
-146.143266
-133.964661
-116.142311
-97.131805
-79.606495
-65.051576
-49.902579
-32.971347
-18.416428
-1.782235
12.207477
25.868224
40.400935
53.189720
67.141121
79.348598
93.590654
105.216822
115.389720
128.178505
141.257944
152.884112
165.091589
175.845794
188.925234
206.073832
217.700000
227.291589
236.592523
245.602804
255.194393
262.751402
270.017757
279.900000
286.294393
294.432710
299.373832
304.024299
306.058879
308.093458
309.837383
309.546729
309.837383
308.965421
308.674766
307.512150
305.186916
304.605607
302.861682
298.501869
294.723364
288.910280
283.969159
276.993458
268.564486
259.554206
250.543925
240.952336
229.907477
219.153271
206.945794
193.285047
178.461682
163.928972
150.268224
137.479439
