-268.658677
-279.094919
-20.276127
-277.007670
-289.531160
-296.091083
-300.861937
-304.141898
-305.036433
-305.334612
-302.949185
-302.949185
-301.160115
-298.476510
-294.898370
-291.916587
-287.145733
-282.374880
-275.218600
-265.975072
-254.644295
-244.506232
-231.684564
-218.564717
-203.655801
-182.783317
-166.383509
-152.667306
-131.794823
-111.816874
-89.155321
-74.842761
-56.952061
-40.254075
-19.083413
-1.192713
14.268727
28.246255
41.641386
50.086142
60.569288
73.382022
88.524345
94.348315
105.996255
111.529026
122.885768
128.709738
138.319288
141.522472
153.461610
157.538390
168.603933
176.466292
183.455056
188.696629
194.811798
216.942884
224.805243
238.491573
240.821161
246.645131
257.419476
262.952247
273.435393
281.297753
285.956929
292.363296
294.984082
304.593633
304.302434
302.846442
303.428839
308.088015
304.593633
311.000000
306.340824
306.923221
303.428839
300.225655
302.846442
297.896067
298.187266
291.198502
283.627341
277.803371
269.649813
261.496255
253.342697
242.568352
233.832397
221.893258
211.992509
197.432584
182.872659
169.186330
155.208801
141.813670
125.215356
108.617041
91.727528
76.585206
61.151685
46.882959
30.867041
16.889513
0.582397
-11.032598
-28.326942
-41.148610
-56.653883
-68.879195
-81.999041
-96.907958
-108.238734
-119.569511
-133.882071
-147.300096
-160.419942
-171.154362
-183.677852
-198.586769
-215.881112
-225.720997
-235.560882
-244.506232
-254.346117
-262.695110
-271.044104
-277.305849
-282.673058
-293.407478
-297.880153
-303.545542
-306.229147
-310.701822
-306.825503
-308.614573
-311.000000
-306.229147
-308.018217
-310.105465
-302.651007
-303.247363
-302.352828
-296.985618
-293.109300
-288.636625
-277.305849
-272.236817
-263.291467
-254.942474
-241.226270
-231.982742
-218.564717
-206.637584
-192.026846
-175.925216
-162.805369
-142.827421
-127.620326
-110.922339
-92.733461
-75.140940
-55.759348
-39.061361
-23.556088
-8.945350
6.115169
22.131086
35.526217
48.338951
60.569288
72.508427
83.282772
96.969101
107.743446
117.935393
128.127341
137.445693
148.511236
161.906367
172.680712
180.543071
193.355805
208.789326
219.272472
230.629213
238.491573
247.518727
256.837079
265.281835
269.649813
278.094569
283.627341
291.489700
296.731273
299.060861
303.428839
304.011236
305.758427
307.214419
307.505618
306.923221
307.505618
306.049625
304.302434
302.555243
299.934457
297.604869
294.110487
289.451311
281.880150
276.638577
269.067416
260.913858
249.848315
241.694757
230.338015
219.272472
209.371723
194.811798
181.999064
166.565543
153.752809
140.066479
123.468165
106.287453
89.397940
75.129213
61.151685
44.553371
30.575843
13.395131
-1.192713
-14.610738
-31.010547
-43.832215
-57.846596
-71.860978
-84.086290
-98.100671
-109.133269
-122.849473
-135.969319
-148.492809
-162.507191
-172.048897
-187.852349
-202.761266
-216.477469
-225.422819
-234.964525
-244.506232
-254.644295
-263.589645
-271.938639
-278.796740
-283.269415
-293.407478
-299.669223
-304.440077
-305.632790
-306.825503
-309.807287
-310.105465
-309.509108
-309.210930
-308.912752
-308.614573
-308.316395
-305.036433
-303.545542
-298.178332
-295.196548
-287.742090
-282.076702
-275.218600
-265.080537
-257.029722
-247.189837
-235.262704
-223.335570
-212.302972
-196.797699
-183.081496
-168.768936
-152.965484
-137.758389
-121.954938
-104.362416
-86.471716
-68.879195
-52.181208
-36.974113
-19.977948
-4.472675
10.483146
25.043071
38.438202
51.542135
63.772472
76.585206
88.233146
102.210674
112.111423
124.050562
134.824906
147.346442
158.703184
169.768727
177.922285
191.317416
207.333333
219.563670
228.299625
236.161985
246.062734
254.798689
262.661049
270.232210
277.803371
281.880150
291.780899
296.440075
300.516854
304.302434
304.011236
306.049625
306.632022
307.505618
307.505618
306.632022
305.176030
304.302434
301.390449
301.099251
297.604869
294.692884
287.995318
282.171348
276.056180
267.902622
259.166667
249.265918
240.821161
230.046816
217.816479
206.168539
193.064607
180.543071
165.109551
152.296816
138.319288
121.720974
105.413858
88.524345
74.255618
59.113296
43.970974
28.246255
12.521536
-1.490892
-16.697987
-30.414190
-43.534036
-59.635666
-70.966443
-85.279003
-97.504314
-110.325983
-123.744008
-136.565676
-149.983701
-163.699904
-174.136146
-189.045062
-203.655801
-216.775647
-227.211889
-235.560882
-245.698945
-256.433365
-262.993289
-273.429530
-277.007670
-285.953020
-293.705657
-298.178332
-304.440077
-305.632790
-308.614573
-308.912752
-306.825503
-309.210930
-306.825503
-308.614573
-309.210930
-304.440077
-303.545542
-302.352828
-300.265580
-293.109300
-288.636625
-281.182167
-276.709492
-267.465964
-256.135187
-248.680729
-237.349952
-226.317354
-213.793864
-200.077661
-186.957814
-171.154362
-154.754554
-139.249281
-124.340364
-107.642378
-89.453500
-71.860978
-55.759348
-40.254075
-25.046980
-8.050815
6.115169
21.548689
34.652622
49.212547
59.695693
74.546816
85.903558
98.716292
109.781835
120.556180
133.368914
145.599251
157.247191
169.477528
177.922285
191.899813
207.624532
219.272472
227.134831
236.744382
244.606742
255.381086
264.408240
269.941011
276.056180
284.500936
292.072097
299.060861
301.681648
303.137640
304.011236
306.049625
306.049625
306.340824
307.214419
306.340824
304.593633
304.011236
301.681648
298.478464
296.148876
292.945693
287.704120
282.753745
275.473783
266.446629
258.293071
248.683521
239.947566
228.299625
217.525281
204.712547
190.152622
177.048689
163.362360
149.093633
135.407303
118.808989
101.919476
85.612360
71.343633
56.492509
40.767790
26.499064
8.444757
-3.578140
-18.785235
-33.694151
-46.515820
-60.828380
-74.842761
-88.260786
-100.187919
-113.605944
-125.533078
-139.845638
-154.158198
-165.488974
-175.925216
-191.430489
-206.339406
-219.161074
-228.404602
-237.349952
-246.593480
-258.520614
-266.273250
-273.429530
-279.094919
-286.251198
-293.705657
-299.967402
-302.651007
-306.229147
-308.912752
-307.720038
-309.210930
-308.912752
-309.509108
-308.614573
-307.123682
-305.334612
-304.141898
-301.160115
-298.178332
-293.705657
-288.338447
-282.076702
-274.920422
-268.658677
-258.520614
-248.978907
-237.946309
-225.720997
-212.302972
-200.674017
-185.466922
-170.259827
-154.158198
-140.441994
-125.234899
-106.151486
-89.155321
-72.755513
-57.548418
-42.043145
-26.537872
-10.138063
6.115169
21.257491
32.905431
47.174157
59.986891
72.508427
85.029963
97.842697
110.073034
120.847378
133.660112
144.434457
156.955993
167.439139
178.504682
193.355805
207.333333
218.107678
228.299625
237.035581
246.062734
254.507491
263.534644
270.523408
277.220974
283.336142
291.780899
297.313670
302.846442
303.428839
305.758427
304.884831
307.505618
306.632022
306.923221
305.176030
305.467228
304.011236
302.264045
298.478464
296.440075
292.363296
285.374532
279.259363
273.726592
265.281835
257.419476
248.683521
239.365169
228.008427
217.234082
203.838951
191.317416
176.175094
162.197566
147.637640
134.824906
117.935393
99.589888
85.612360
68.722846
53.289326
39.311798
22.131086
8.153558
-5.963567
-21.170662
-36.377756
-48.901246
-62.319271
-76.930010
-90.944391
-102.573346
-114.798658
-127.620326
-140.143816
-154.456376
-166.085331
-175.627037
-193.815916
-209.321189
-219.757430
-230.491850
-237.946309
-249.575264
-257.327900
-266.571429
-273.429530
-278.498562
-287.145733
-293.407478
-301.458293
-304.141898
-306.825503
-308.018217
-309.807287
-309.807287
-309.210930
-308.912752
-308.614573
-308.316395
-306.527325
-304.141898
-301.756472
-297.581975
-294.600192
-286.251198
-282.374880
-274.324065
-265.975072
-257.327900
-246.593480
-237.051774
-225.422819
-212.601151
-199.481304
-186.361457
-170.558006
-155.649089
-141.038351
-126.725791
-108.835091
-90.348035
-74.246405
-57.548418
-42.341323
-26.836050
-10.138063
5.823970
18.636704
32.905431
46.009363
60.569288
72.799625
84.447566
99.007491
109.199438
120.847378
132.786517
145.308052
157.247191
166.856742
177.922285
193.647004
207.624532
220.146067
227.717228
237.617978
245.771536
255.672285
264.117041
271.979401
278.094569
286.539326
292.945693
298.478464
301.390449
304.302434
306.340824
306.340824
307.505618
307.505618
306.049625
306.340824
305.176030
302.846442
301.681648
298.187266
295.566479
292.363296
284.792135
281.297753
272.270599
264.408240
254.507491
246.936330
237.909176
226.843633
215.195693
202.382959
187.531835
173.554307
159.576779
146.472846
132.786517
114.732210
96.386704
80.079588
67.266854
52.415730
36.982210
20.675094
4.367978
-9.243528
-24.450623
-37.868648
-52.181208
-65.599233
-78.719080
-91.838926
-103.766059
-115.991371
-129.409396
-142.231064
-156.245446
-166.085331
-177.416107
-193.815916
-208.724832
-220.950144
-229.895494
-240.331735
-248.978907
-258.520614
-268.360499
-274.324065
-281.778523
-288.934803
-296.389262
-300.861937
-304.738255
-307.421860
-308.614573
-309.210930
-309.807287
-309.807287
-309.509108
-309.807287
-308.614573
-306.229147
-304.141898
-302.352828
-296.985618
-292.214765
-287.443912
-281.182167
-272.534995
-266.273250
-254.942474
-247.488015
-236.157239
-226.317354
-213.495686
-198.884947
-183.976031
-169.961649
-155.052733
-139.547459
-124.936721
-106.151486
-88.857143
-72.457335
-57.846596
-41.744966
-26.537872
-10.436242
5.241573
19.219101
32.905431
47.465356
60.278090
72.217228
85.903558
99.007491
109.490637
122.594569
133.368914
147.055243
158.411985
168.895131
179.669476
194.229401
209.662921
220.437266
228.882022
237.617978
247.809925
258.584270
264.408240
272.561798
278.676966
286.248127
292.945693
298.769663
303.137640
303.428839
305.176030
307.214419
306.923221
307.214419
306.340824
306.632022
305.758427
303.720037
301.390449
299.060861
296.731273
289.451311
284.792135
279.550562
270.523408
264.117041
254.216292
244.315543
235.579588
224.805243
212.866105
200.635768
186.075843
171.224719
158.411985
145.308052
130.456929
112.111423
94.639513
79.205993
64.063670
51.250936
34.070225
17.471910
3.203184
-11.628955
-25.345158
-40.552253
-53.075743
-67.090125
-81.700863
-93.329818
-106.151486
-117.482263
-130.602109
-143.423778
-157.438159
-168.768936
-180.696069
-196.201342
-210.513902
-222.142857
-231.684564
-240.331735
-249.873442
-260.011505
-267.465964
-274.324065
-282.076702
-290.723873
-296.091083
-301.458293
-305.334612
-308.316395
-307.421860
-309.210930
-308.614573
-307.720038
-308.316395
-308.018217
-306.527325
-304.738255
-303.247363
-300.265580
-296.389262
-291.916587
-285.953020
-281.182167
-271.640460
-264.782359
-254.942474
-245.997124
-234.964525
-223.335570
-210.215724
-197.394056
-184.274209
-167.874401
-152.965484
-139.845638
-122.849473
-104.958773
-88.260786
-73.053691
-56.355705
-41.446788
-24.748802
-9.243528
7.279963
20.383895
34.652622
47.174157
61.442884
74.838015
86.485955
99.881086
110.946629
121.429775
135.407303
146.764045
160.741573
170.351124
181.125468
196.267790
211.701311
221.602060
229.464419
240.529963
247.809925
258.584270
265.864232
274.017790
281.297753
288.577715
294.984082
300.225655
301.681648
304.593633
305.467228
307.505618
306.632022
306.340824
307.214419
306.049625
303.428839
302.264045
300.808052
298.187266
294.401685
289.742509
284.500936
277.220974
271.397004
260.913858
253.051498
243.441948
234.414794
223.349251
211.701311
198.306180
185.202247
170.351124
156.955993
141.813670
127.544944
109.490637
93.765918
78.623596
62.898876
48.047753
31.740637
15.142322
-0.298178
-14.312560
-27.432407
-42.043145
-55.759348
-69.773730
-81.402685
-95.118888
-108.238734
-119.271333
-132.391179
-145.511026
-157.438159
-169.961649
-181.888782
-198.586769
-212.601151
-223.931927
-231.684564
-242.717162
-252.258869
-260.906040
-268.360499
-276.411314
-283.567593
-290.425695
-296.687440
-302.352828
-305.036433
-306.229147
-308.018217
-309.210930
-309.210930
-309.807287
-308.316395
-306.825503
-306.527325
-304.440077
-302.949185
-299.371045
-295.792905
-290.425695
-285.058485
-278.796740
-271.044104
-264.484180
-252.855225
-244.804410
-234.964525
-222.739214
-209.917546
-196.201342
-182.783317
-168.172579
-151.176414
-138.354746
-121.358581
-104.660594
-86.769895
-70.668265
-53.970278
-39.657718
-24.152445
-8.348993
6.988764
21.839888
36.108614
48.921348
62.607678
75.129213
87.941948
100.172285
111.820225
123.176966
136.280899
147.928839
160.159176
170.933521
182.581461
198.306180
212.283708
222.184457
230.920412
239.947566
251.595506
259.457865
267.611423
274.600187
282.171348
288.868914
295.857678
300.808052
303.720037
304.884831
306.632022
306.340824
307.796816
306.923221
306.923221
305.758427
304.593633
303.428839
300.225655
297.896067
294.692884
289.451311
285.374532
278.385768
269.067416
262.078652
253.342697
243.441948
234.123596
221.019663
210.245318
196.850187
183.455056
168.603933
154.044007
140.940075
124.341760
108.325843
91.727528
75.420412
60.278090
46.009363
29.993446
14.851124
-1.490892
-15.505273
-30.414190
-44.130393
-56.952061
-70.668265
-85.279003
-96.013423
-109.431448
-121.060403
-134.478428
-147.300096
-158.630872
-169.961649
-184.870566
-199.779482
-214.688399
-226.019175
-234.368169
-243.611697
-251.662512
-262.695110
-270.745925
-275.814957
-282.971237
-291.022052
-298.774688
-301.160115
-306.527325
-307.421860
-308.018217
-308.316395
-309.509108
-308.614573
-309.509108
-308.018217
-306.825503
-303.843720
-302.651007
-299.072867
-294.898370
-291.320230
-285.356663
-277.604027
-270.447747
-260.906040
-252.557047
-243.611697
-233.175455
-220.950144
-209.023011
-194.710451
-181.590604
-166.383509
-150.281879
-136.863854
-121.060403
-102.573346
-85.875360
-69.475551
-54.864813
-38.763183
-22.661553
-7.454458
8.153558
21.548689
37.564607
49.212547
63.481273
76.876404
88.233146
101.337079
112.693820
123.468165
137.445693
147.928839
161.032772
171.515918
183.746255
199.470974
213.739700
223.640449
232.667603
241.403558
249.848315
261.787453
267.029026
276.056180
282.462547
289.160112
296.440075
301.390449
303.720037
305.758427
305.758427
307.505618
306.632022
306.632022
306.632022
304.593633
304.302434
303.137640
300.808052
298.478464
294.692884
289.160112
281.880150
276.347378
269.067416
260.622659
251.304307
240.821161
231.211610
221.310861
209.954120
195.685393
181.707865
167.439139
152.005618
140.066479
122.885768
105.413858
89.106742
73.964419
59.113296
43.679775
28.246255
11.647940
-3.279962
-16.996165
-31.905081
-44.428571
-59.635666
-73.053691
-84.980825
-98.100671
-110.624161
-123.147651
-135.074784
-148.194631
-161.910834
-171.154362
-184.870566
-201.270374
-215.582934
-226.317354
-235.560882
-243.909875
-254.047939
-262.993289
-269.255034
-277.007670
-283.865772
-291.022052
-298.476510
-302.054650
-305.632790
-306.527325
-309.509108
-308.614573
-309.807287
-307.720038
-308.614573
-308.614573
-306.527325
-305.930968
-303.545542
-299.371045
-296.389262
-290.127517
-283.269415
-276.411314
-269.851390
-259.116970
-251.662512
-240.928092
-230.491850
-220.055609
-207.830297
-193.815916
-180.099712
-163.699904
-150.281879
-135.372963
-118.376798
-102.275168
-84.086290
-67.984660
-52.181208
-36.675935
-21.170662
-5.665388
9.900749
24.169476
37.855805
50.377341
64.063670
77.750000
89.980337
102.501873
113.567416
125.215356
138.028090
149.967228
162.779963
172.098315
185.202247
201.509363
214.613296
224.805243
234.123596
242.859551
253.051498
262.078652
269.067416
276.347378
283.044944
290.033708
297.604869
301.972846
303.428839
304.593633
304.884831
306.049625
308.088015
306.632022
306.923221
306.049625
304.884831
301.681648
301.681648
297.022472
293.236891
289.160112
282.753745
275.182584
267.320225
259.457865
249.557116
241.112360
231.211610
219.563670
207.333333
193.647004
180.251873
166.565543
152.005618
137.154494
121.720974
103.957865
87.941948
71.926030
57.657303
41.350187
25.916667
9.609551
-5.069032
-19.381592
-34.290508
-46.217641
-62.021093
-74.544583
-87.366251
-101.678811
-112.711409
-123.744008
-137.758389
-151.176414
-163.998082
-175.030681
-188.448706
-203.953979
-216.179291
-227.510067
-235.262704
-245.698945
-255.538830
-264.484180
-270.745925
-276.709492
-283.269415
-292.214765
-298.178332
-302.651007
-307.421860
-307.421860
-307.720038
-309.509108
-308.614573
-308.316395
-308.614573
-308.316395
-304.738255
-304.440077
-302.352828
-299.967402
-294.898370
-288.934803
-282.673058
-277.305849
-268.956855
-257.924257
-250.767977
-241.226270
-229.000959
-218.862895
-206.041227
-192.921381
-177.714286
-162.209012
-147.598274
-132.987536
-116.587728
-97.504314
-82.595398
-67.090125
-51.883030
-36.377756
-18.785235
-4.472675
10.483146
25.043071
39.602996
51.250936
64.937266
78.914794
90.853933
102.501873
115.314607
126.671348
139.484082
150.549625
163.944757
173.845506
187.531835
203.256554
216.651685
224.805243
234.414794
244.024345
252.760300
263.243446
269.067416
277.220974
283.627341
290.616105
297.896067
302.264045
304.884831
304.302434
306.340824
307.214419
307.505618
306.923221
307.214419
305.758427
303.137640
301.390449
300.516854
296.731273
293.528090
287.995318
281.588951
276.056180
267.029026
258.584270
248.974719
239.947566
229.464419
218.690075
206.168539
191.317416
179.378277
163.944757
148.220037
134.824906
118.517790
101.919476
84.156367
69.596442
54.745318
39.602996
23.004682
9.027154
-5.665388
-21.468840
-34.588686
-48.603068
-60.828380
-76.333653
-88.260786
-101.976989
-113.307766
-125.831256
-139.547459
-152.070949
-163.998082
-175.925216
-189.343241
-204.848514
-216.477469
-226.019175
-235.859060
-245.400767
-256.135187
-265.080537
-271.342282
-278.796740
-285.654842
-291.022052
-298.178332
-303.545542
-305.334612
-307.720038
-307.123682
-308.912752
-309.210930
-308.614573
-308.614573
-306.825503
-305.334612
-303.247363
-300.861937
-297.283797
-293.705657
-289.531160
-283.269415
-276.709492
-267.465964
-259.116970
-249.277085
-240.629914
-229.299137
-217.372004
-203.655801
-189.939597
-176.521572
-161.910834
-146.405561
-130.602109
-115.395014
-97.802493
-80.209971
-64.704698
-50.093960
-33.395973
-18.487057
-1.789070
12.812734
25.916667
40.476592
52.706929
66.975655
80.661985
92.309925
104.540262
115.314607
126.962547
141.231273
151.714419
164.235955
174.719101
188.696629
204.421348
216.069288
225.970037
235.288390
245.189139
253.925094
263.825843
269.941011
277.512172
283.044944
292.072097
298.187266
301.681648
304.884831
305.467228
306.340824
307.214419
306.923221
306.632022
306.632022
305.176030
304.011236
302.264045
300.225655
297.896067
292.363296
287.704120
281.006554
276.056180
267.029026
256.837079
248.974719
239.656367
227.717228
216.942884
202.965356
190.443820
175.883895
162.197566
148.220037
133.660112
116.188202
99.881086
83.573970
69.305243
53.289326
38.438202
21.839888
6.988764
-8.050815
-22.661553
-37.272291
-49.497603
-65.002876
-78.420901
-90.348035
-102.573346
-114.500479
-127.023969
-141.336529
-152.369128
-165.190796
-177.416107
-190.535954
-208.128476
-218.862895
-228.702780
-237.051774
-245.698945
-257.924257
-262.098754
-271.938639
-278.498562
-286.251198
-293.109300
-300.265580
-304.440077
-306.825503
-308.316395
-308.018217
-310.701822
-309.807287
-309.210930
-306.229147
-307.421860
-306.527325
-303.247363
-302.054650
-298.476510
-294.003835
-288.338447
-280.883988
-275.814957
-268.360499
-256.135187
-248.084372
-238.542665
-227.211889
-216.179291
-203.953979
-189.641419
-174.732502
-159.525407
-144.914669
-131.198466
-113.009588
-95.417066
-79.613615
-63.511985
-48.901246
-32.799616
-16.996165
-0.596357
13.686330
28.537453
42.223783
54.454120
67.849251
80.953184
94.639513
105.705056
117.061798
128.709738
141.813670
154.335206
166.274345
175.883895
190.152622
207.333333
218.107678
226.843633
236.744382
246.062734
254.798689
264.699438
271.105805
278.094569
286.539326
293.528090
298.769663
301.390449
305.176030
306.049625
307.505618
307.505618
308.961610
307.214419
306.049625
304.593633
304.011236
302.264045
299.060861
297.896067
292.363296
286.248127
281.297753
273.726592
266.737828
255.963483
248.683521
237.617978
227.426030
216.360487
202.674157
188.114232
173.845506
159.867978
146.764045
132.204120
115.897004
96.677903
81.535581
66.102060
50.959738
36.108614
20.675094
5.532772
-10.436242
-24.152445
-39.359540
-52.479386
-65.301055
-79.017258
-93.627996
-103.467881
-117.482263
-128.216683
-143.125599
-154.754554
-166.085331
-178.012464
-192.325024
-208.426654
-218.862895
-228.702780
-238.542665
-248.978907
-257.327900
-266.273250
-273.429530
-279.989453
-288.636625
-294.898370
-300.563758
-302.949185
-305.036433
-308.018217
-307.421860
-308.912752
-307.720038
-308.316395
-309.509108
-307.720038
-305.632790
-304.440077
-299.967402
-296.687440
-292.512943
-286.847555
-282.673058
-275.516779
-265.080537
-257.029722
-247.488015
-237.648130
-226.913710
-214.986577
-202.463087
-189.045062
-172.943432
-158.034516
-144.020134
-130.303931
-112.115053
-94.224353
-78.420901
-62.319271
-47.112176
-30.712368
-14.908917
0.582397
15.142322
28.246255
43.097378
56.783708
70.178839
82.409176
95.513109
105.705056
118.517790
129.874532
143.852060
155.500000
166.274345
177.339888
193.064607
207.915730
218.981273
228.008427
238.200375
246.645131
256.254682
264.990637
273.726592
279.841760
286.830524
294.110487
299.352060
301.099251
305.176030
305.467228
306.923221
307.214419
306.923221
307.214419
306.923221
305.467228
303.428839
301.681648
299.352060
296.148876
291.489700
286.539326
280.424157
273.435393
265.281835
255.963483
245.771536
237.035581
225.387640
214.613296
200.926966
187.531835
173.554307
158.994382
145.016854
129.874532
112.111423
96.677903
79.497191
63.772472
49.503745
33.487828
18.927903
1.747191
-12.225312
-26.537872
-41.148610
-52.777565
-68.581016
-81.402685
-93.627996
-105.555129
-118.078619
-131.198466
-142.231064
-155.649089
-167.278044
-179.205177
-193.815916
-210.215724
-220.353787
-229.299137
-240.033557
-250.171620
-258.520614
-267.764142
-272.534995
-278.498562
-287.443912
-295.494727
-300.861937
-304.141898
-307.421860
-308.316395
-308.912752
-310.403643
-309.210930
-309.509108
-309.210930
-307.421860
-305.930968
-303.247363
-299.371045
-297.581975
-292.512943
-285.953020
-281.480345
-271.640460
-264.484180
-255.837009
-245.997124
-236.753595
-226.317354
-214.092042
-200.077661
-187.554171
-171.452541
-156.841802
-143.125599
-127.322148
-108.835091
-91.242570
-75.737296
-61.722915
-44.726750
-30.116012
-13.119847
2.038390
16.015918
29.702247
43.097378
57.657303
70.761236
82.991573
96.969101
107.452247
118.517790
131.621723
144.143258
155.208801
167.147940
178.504682
193.938202
208.789326
220.146067
230.046816
238.782772
248.392322
258.293071
265.281835
274.017790
281.006554
286.830524
294.110487
298.769663
303.720037
305.467228
306.049625
306.632022
307.796816
307.796816
306.923221
306.923221
307.214419
303.720037
301.681648
298.478464
296.148876
292.363296
287.412921
279.550562
271.979401
263.534644
254.216292
245.771536
234.414794
224.514045
213.448502
200.053371
186.367041
172.389513
157.247191
142.687266
129.292135
111.237828
93.765918
78.623596
64.354869
48.047753
33.487828
16.598315
1.455993
-14.312560
-28.326942
-42.639501
-54.566635
-68.282838
-83.191755
-95.715244
-107.046021
-119.867689
-131.496644
-144.616491
-158.332694
-169.961649
-179.801534
-195.903164
-211.408437
-221.546500
-230.790029
-240.033557
-250.469799
-259.116970
-267.764142
-274.622244
-281.778523
-288.636625
-295.792905
-299.669223
-305.334612
-308.018217
-307.720038
-308.316395
-309.210930
-308.316395
-309.509108
-307.421860
-306.527325
-304.440077
-303.843720
-300.861937
-297.581975
-292.512943
-286.549377
-279.989453
-272.833174
-263.589645
-253.451582
-245.698945
-235.859060
-224.528284
-213.793864
-200.674017
-186.063279
-170.259827
-155.649089
-142.231064
-126.129434
-107.642378
-88.857143
-74.246405
-58.442953
-44.726750
-27.730585
-11.032598
3.203184
18.054307
32.323034
45.135768
58.822097
71.634831
85.029963
97.551498
110.655431
119.973783
134.242509
145.308052
157.829588
168.021536
181.125468
195.685393
209.371723
221.310861
230.046816
239.656367
248.974719
259.166667
266.737828
272.852996
280.424157
288.286517
295.857678
299.643258
303.720037
305.176030
307.214419
307.214419
308.088015
306.923221
307.505618
306.049625
306.049625
304.011236
301.099251
299.060861
295.275281
290.616105
285.374532
279.841760
271.979401
262.369850
254.216292
244.897940
235.288390
224.805243
213.157303
199.179775
184.911049
168.895131
154.044007
141.522472
126.671348
108.325843
90.853933
75.420412
62.025281
45.426966
30.575843
14.268727
-0.894535
-15.505273
-29.221477
-43.534036
-57.548418
-69.773730
-83.489933
-96.609779
-108.238734
-120.762224
-134.478428
-146.107383
-160.121764
-169.663471
-182.186961
-197.692234
-213.197507
-223.335570
-231.386385
-242.717162
-251.662512
-260.011505
-267.465964
-275.516779
-282.374880
-289.232982
-296.389262
-302.352828
-304.738255
-306.229147
-308.018217
-308.614573
-308.614573
-309.509108
-307.720038
-308.018217
-305.930968
-304.141898
-304.738255
-300.265580
-296.985618
-291.916587
-285.356663
-278.796740
-271.044104
-262.993289
-252.557047
-245.102589
-234.666347
-221.844679
-209.321189
-196.201342
-184.274209
-169.067114
-153.263663
-141.038351
-122.551294
-107.046021
-88.260786
-72.159156
-56.355705
-40.850431
-24.152445
-8.945350
6.697566
19.510300
34.361423
48.630150
61.442884
74.255618
86.485955
99.881086
110.364232
122.303371
134.242509
147.637640
159.576779
170.059925
181.999064
197.723783
212.574906
222.184457
231.794007
241.694757
250.139513
260.331461
267.320225
274.600187
280.424157
288.577715
297.022472
301.099251
304.302434
305.758427
307.796816
306.049625
308.670412
307.796816
306.632022
306.049625
304.593633
304.011236
301.099251
298.187266
294.984082
290.616105
283.918539
278.385768
269.649813
261.205056
253.342697
243.150749
232.667603
222.766854
209.954120
197.141386
183.163858
168.603933
153.752809
140.357678
124.632959
106.287453
89.397940
74.838015
59.113296
43.679775
26.499064
11.356742
-4.472675
-16.101630
-31.010547
-45.024928
-59.933845
-72.755513
-84.980825
-98.398849
-109.431448
-121.954938
-134.776606
-146.405561
-161.016299
-171.154362
-183.379674
-199.779482
-213.793864
-223.931927
-233.473634
-242.717162
-252.258869
-261.800575
-268.360499
-275.814957
-283.269415
-289.829338
-296.687440
-302.054650
-304.738255
-306.527325
-308.614573
-308.614573
-308.018217
-307.720038
-308.018217
-307.421860
-306.825503
-304.440077
-302.352828
-300.265580
-294.898370
-290.723873
-285.356663
-277.305849
-269.851390
-261.502397
-251.066155
-242.717162
-232.579099
-221.248322
-208.426654
-195.604986
-180.099712
-166.383509
-152.369128
-138.354746
-121.060403
-103.766059
-85.279003
-70.966443
-55.162991
-40.850431
-23.556088
-8.348993
7.571161
21.839888
34.652622
48.630150
61.734082
75.420412
87.650749
99.881086
112.111423
124.341760
136.280899
147.928839
162.197566
170.933521
183.163858
199.179775
212.574906
225.096442
232.667603
241.985955
251.013109
262.369850
268.485019
275.473783
282.171348
290.324906
297.896067
300.516854
304.302434
305.176030
305.758427
309.252809
308.379213
307.214419
306.340824
306.340824
304.884831
303.428839
300.808052
298.478464
294.110487
289.160112
283.044944
277.803371
268.776217
259.457865
253.925094
241.694757
232.667603
222.184457
209.662921
195.976592
181.125468
167.730337
153.461610
138.610487
123.176966
103.957865
87.650749
73.673221
58.530899
42.514981
27.955056
9.027154
-4.472675
-19.083413
-33.395973
-46.217641
-60.232023
-73.948226
-86.769895
-99.591563
-110.922339
-124.042186
-135.969319
-148.790988
-161.910834
-172.347076
-186.063279
-201.270374
-215.881112
-225.422819
-235.262704
-244.506232
-253.153404
-264.186002
-270.447747
-276.411314
-283.865772
-290.425695
-296.687440
-302.949185
-305.334612
-306.527325
-308.316395
-308.614573
-310.105465
-309.210930
-308.316395
-307.720038
-307.421860
-303.843720
-303.247363
-299.371045
-294.600192
-290.127517
-283.269415
-277.902205
-269.553212
-259.713327
-250.767977
-240.928092
-231.684564
-220.353787
-207.830297
-194.114094
-179.205177
-165.787152
-150.580058
-135.969319
-119.867689
-101.082454
-84.086290
-70.668265
-54.566635
-38.465005
-21.767018
-5.367210
8.153558
23.587079
37.273408
49.794944
63.190075
76.585206
90.562734
101.919476
113.567416
124.341760
138.319288
150.840824
162.197566
171.515918
186.367041
200.926966
214.904494
225.096442
235.288390
243.150749
252.760300
261.787453
269.941011
276.347378
284.500936
290.033708
296.731273
302.555243
304.011236
305.758427
305.176030
308.088015
308.088015
307.796816
307.214419
306.923221
305.758427
303.137640
300.516854
297.313670
293.236891
287.704120
282.462547
276.056180
267.902622
259.749064
251.013109
240.529963
232.085206
220.437266
207.333333
193.647004
180.834270
165.691948
152.005618
137.154494
120.556180
102.501873
85.903558
71.343633
55.618914
39.894195
23.878277
9.027154
-5.069032
-20.276127
-33.395973
-48.304890
-61.126558
-75.737296
-88.558965
-99.889741
-112.711409
-124.936721
-137.758389
-150.580058
-162.805369
-174.732502
-186.957814
-203.655801
-216.179291
-226.317354
-235.560882
-244.804410
-255.538830
-262.098754
-270.149569
-277.902205
-285.058485
-290.425695
-296.985618
-301.458293
-305.036433
-306.527325
-309.210930
-310.105465
-309.807287
-308.912752
-308.316395
-307.720038
-306.229147
-304.440077
-302.651007
-297.581975
-294.302013
-288.636625
-282.076702
-277.305849
-269.255034
-260.309684
-250.767977
-241.524449
-231.684564
-218.862895
-207.532119
-192.921381
-178.608821
-164.296261
-148.492809
-135.074784
-117.482263
-98.995206
-81.700863
-67.090125
-51.584851
-36.974113
-20.276127
-3.578140
10.191948
24.169476
40.185393
51.250936
64.063670
77.750000
89.980337
102.793071
115.023408
126.380150
139.484082
151.423221
164.235955
173.554307
187.823034
203.838951
216.651685
226.552434
235.579588
244.897940
253.633895
263.534644
270.523408
277.803371
284.500936
292.072097
297.896067
302.555243
305.467228
305.758427
307.214419
307.796816
308.961610
307.796816
306.632022
306.923221
304.884831
302.555243
300.225655
298.187266
294.110487
287.995318
281.588951
276.347378
267.611423
259.749064
249.557116
240.238764
228.299625
218.981273
205.586142
192.191011
177.631086
162.488764
149.384831
135.989700
118.808989
101.337079
83.865169
69.305243
54.162921
38.438202
23.004682
7.279963
-6.261745
-21.767018
-36.377756
-50.392138
-64.406520
-75.439118
-90.348035
-101.678811
-114.500479
-127.023969
-140.143816
-152.667306
-163.401726
-174.434324
-188.448706
-204.550336
-217.670182
-228.404602
-236.753595
-244.208054
-256.135187
-264.782359
-272.236817
-279.393097
-285.058485
-292.214765
-299.669223
-301.756472
-306.229147
-307.421860
-308.316395
-309.807287
-308.912752
-307.720038
-309.509108
-307.123682
-304.141898
-303.247363
-301.160115
-298.178332
-293.109300
-288.636625
-282.076702
-274.920422
-265.975072
-258.818792
-248.680729
-239.437200
-229.000959
-216.775647
-204.252157
-192.026846
-177.117929
-161.016299
-147.896453
-133.583893
-115.693193
-97.206136
-80.806328
-64.704698
-50.392138
-34.588686
-19.083413
-2.087248
12.230337
26.499064
40.476592
53.289326
67.266854
80.079588
92.018727
104.249064
115.023408
127.836142
139.775281
151.714419
163.944757
175.592697
188.405431
205.003745
216.651685
226.552434
236.453184
245.480337
254.798689
263.825843
271.688202
278.968165
285.374532
293.528090
297.313670
303.137640
304.884831
306.632022
308.088015
307.505618
307.505618
307.796816
308.670412
306.049625
303.428839
303.428839
300.516854
298.187266
293.236891
287.995318
282.171348
275.473783
266.446629
257.419476
248.683521
239.073970
228.008427
217.525281
204.421348
190.735019
175.883895
161.615169
148.220037
134.533708
116.188202
98.425094
82.700375
68.140449
52.998127
36.691011
21.257491
5.532772
-8.647172
-22.661553
-37.868648
-50.392138
-65.002876
-77.526366
-91.540748
-103.766059
-114.202301
-128.514861
-140.441994
-153.561841
-165.488974
-176.223394
-190.834132
-206.935762
-218.266539
-228.702780
-236.753595
-247.488015
-257.029722
-264.484180
-272.534995
-278.498562
-286.549377
-292.512943
-298.774688
-303.545542
-305.930968
-308.018217
-308.316395
-307.720038
-308.316395
-308.316395
-308.614573
-306.229147
-305.334612
-302.352828
-300.563758
-298.476510
-293.109300
-287.742090
-282.374880
-275.218600
-265.676894
-257.029722
-246.891659
-238.542665
-227.510067
-215.284756
-203.357622
-188.746884
-175.627037
-159.823586
-146.107383
-131.496644
-112.413231
-96.013423
-79.315436
-64.704698
-49.795781
-33.992330
-17.294343
-1.192713
13.103933
27.663858
42.514981
54.454120
67.558052
81.244382
94.348315
105.122659
117.352996
128.709738
142.104869
153.752809
165.983146
175.883895
190.735019
206.750936
218.690075
227.426030
238.782772
245.771536
255.963483
265.864232
271.105805
279.550562
286.248127
294.984082
299.352060
302.846442
304.011236
305.758427
307.214419
307.796816
307.796816
306.923221
306.923221
306.049625
304.302434
303.137640
300.225655
296.440075
291.780899
286.248127
281.297753
274.017790
266.155431
256.545880
248.101124
237.326779
228.008427
215.778090
202.382959
189.279026
174.719101
160.450375
147.346442
132.786517
114.732210
97.260300
80.661985
64.937266
50.668539
34.652622
18.054307
3.203184
-10.436242
-24.152445
-39.359540
-53.075743
-66.493768
-79.315436
-91.838926
-104.064238
-115.395014
-129.409396
-141.634708
-155.052733
-165.787152
-177.416107
-193.815916
-207.830297
-220.353787
-229.597315
-237.051774
-247.488015
-257.029722
-265.080537
-271.938639
-279.691275
