-80.860000
22.734770
-36.431429
-30.507619
-13.624762
1.165886
14.865042
27.689784
44.012184
57.711340
71.410497
82.486410
97.059981
109.884724
121.835052
136.117151
148.941893
160.892221
172.551078
187.999063
203.738519
213.648547
224.724461
234.051546
243.961575
253.871603
262.032802
269.319588
276.023430
283.601687
290.014058
294.969072
292.928772
301.672915
302.838800
296.717901
296.717901
295.552015
294.386129
292.637301
289.722587
289.431115
285.350515
279.812559
275.440487
264.073102
251.831303
241.046860
232.011246
217.729147
198.783505
182.752577
170.510778
152.439550
133.785380
115.714152
94.728210
78.405811
57.128397
45.469541
25.066542
9.618557
-6.220000
-23.991429
-34.358095
-46.798095
-63.680952
-70.789524
-84.118095
-92.707619
-100.704762
-113.440952
-118.772381
-125.880952
-135.062857
-141.579048
-148.983810
-156.388571
-166.459048
-179.787619
-187.488571
-193.708571
-199.928571
-212.960952
-223.327619
-232.509524
-249.392381
-249.688571
-262.720952
-262.128571
-271.606667
-283.750476
-287.897143
-292.932381
-300.633333
-303.595238
-304.187619
-303.595238
-310.407619
-308.038095
-309.222857
-307.445714
-305.372381
-311.000000
-309.519048
-308.038095
-299.744762
-302.706667
-298.560000
-292.043810
-284.935238
-280.196190
-271.014286
-262.424762
-253.242857
-244.060952
-234.879048
-223.920000
-212.368571
-199.040000
-188.969524
-172.975238
-157.869524
-147.502857
-129.139048
-111.663810
-96.261905
-80.267619
-65.458095
-51.537143
-33.173333
-18.363810
-4.146667
11.950328
23.609185
36.433927
53.047798
65.289597
78.988754
91.230553
104.055295
116.588566
130.287723
141.655108
153.896907
166.138707
178.671978
192.954077
210.150890
219.477976
229.388004
240.172446
248.333646
258.826617
267.570759
273.400187
280.686973
285.933458
295.260544
299.632615
304.296157
304.587629
307.210872
304.004686
306.919400
304.879100
306.044986
304.004686
305.462043
301.964386
301.089972
296.717901
295.552015
287.099344
278.938144
273.400187
262.907216
255.037488
245.127460
233.468604
221.809747
208.402062
192.662605
180.420806
164.389878
146.610122
132.036551
115.422680
96.768510
79.571696
60.626054
44.886598
28.564199
14.282099
-1.480952
-16.586667
-32.284762
-44.132381
-57.757143
-70.197143
-80.860000
-93.892381
-104.851429
-115.514286
-126.473333
-137.432381
-148.095238
-160.535238
-171.198095
-180.083810
-191.931429
-207.037143
-220.069524
-229.547619
-238.137143
-245.838095
-254.427619
-263.017143
-268.348571
-275.753333
-280.492381
-287.600952
-296.782857
-299.744762
-304.187619
-306.557143
-306.853333
-306.853333
-308.630476
-307.149524
-308.038095
-307.149524
-306.557143
-305.076190
-302.410476
-298.856190
-296.486667
-290.859048
-286.120000
-278.122857
-271.310476
-261.536190
-254.131429
-244.357143
-233.694286
-223.920000
-213.257143
-199.336190
-185.711429
-171.790476
-157.573333
-144.540952
-129.139048
-110.479048
-93.892381
-79.082857
-64.273333
-48.871429
-34.654286
-17.475238
-0.888571
11.950328
25.649485
39.931584
53.339269
66.455483
80.446111
92.687910
105.512652
116.880037
129.413308
143.112465
155.645736
166.138707
178.963449
194.702905
209.859419
220.643861
228.513590
239.589503
250.082474
259.118088
265.821931
273.108716
280.395501
287.682287
294.386129
299.924086
302.838800
305.753515
305.462043
306.919400
306.044986
307.502343
306.627929
306.044986
304.587629
301.672915
302.255858
298.175258
295.260544
288.556701
284.476101
276.606373
269.319588
259.409560
249.499531
237.549203
226.764761
215.688847
201.115276
187.124649
173.425492
155.937207
141.072165
127.373008
110.176195
92.979381
74.325211
57.711340
42.846298
28.564199
11.658857
-4.442857
-19.252381
-32.284762
-45.613333
-59.534286
-71.678095
-83.525714
-96.558095
-107.813333
-119.660952
-129.731429
-143.948571
-156.684762
-169.124762
-175.640952
-189.561905
-204.075238
-215.922857
-227.474286
-233.398095
-243.468571
-252.354286
-261.536190
-267.163810
-275.753333
-280.492381
-288.489524
-296.190476
-300.040952
-304.483810
-306.260952
-306.853333
-307.445714
-307.741905
-307.445714
-305.668571
-307.149524
-305.668571
-302.114286
-302.706667
-299.152381
-294.709524
-289.970476
-283.750476
-278.715238
-271.014286
-262.720952
-253.835238
-243.764762
-234.286667
-224.512381
-211.480000
-199.632381
-184.526667
-169.420952
-157.277143
-142.171429
-127.065714
-110.775238
-92.115238
-79.675238
-63.088571
-47.982857
-32.580952
-16.882857
-1.480952
13.116214
26.815370
40.514527
54.505155
67.038425
80.446111
92.396439
105.221181
118.337395
131.162137
145.152765
156.811621
167.304592
180.712277
196.451734
211.025305
221.518276
229.388004
239.298032
249.791003
259.409560
267.279288
273.983130
282.144330
287.682287
295.843486
299.632615
304.879100
304.587629
306.044986
307.210872
308.668229
307.502343
307.502343
306.336457
304.879100
304.296157
301.381443
299.632615
294.969072
289.139644
284.184630
278.063730
269.319588
260.283974
250.373946
241.338332
229.096532
217.729147
204.904405
191.205248
176.923149
160.892221
144.861293
131.453608
114.548266
97.642924
79.280225
64.415183
48.675726
33.810684
18.071228
2.623243
-12.736190
-27.841905
-40.281905
-54.795238
-67.235238
-79.379048
-92.411429
-104.555238
-115.218095
-128.546667
-140.986667
-153.130476
-165.274286
-174.160000
-187.192381
-201.705714
-215.330476
-225.697143
-233.101905
-242.876190
-249.688571
-259.166667
-267.460000
-273.680000
-280.788571
-289.378095
-294.709524
-301.521905
-303.891429
-305.668571
-306.853333
-306.853333
-307.149524
-306.853333
-307.149524
-307.149524
-305.668571
-305.076190
-301.818095
-298.560000
-294.413333
-289.378095
-283.454286
-276.938095
-270.421905
-261.832381
-252.354286
-242.876190
-234.582857
-223.031429
-210.295238
-198.447619
-182.749524
-169.420952
-154.907619
-143.652381
-126.177143
-109.294286
-92.115238
-77.601905
-61.311429
-47.094286
-31.100000
-14.513333
-0.000000
13.699157
27.398313
42.263355
54.505155
68.204311
81.320525
93.853796
106.095595
118.045923
131.162137
145.152765
157.977507
167.596064
181.003749
196.160262
210.442362
221.226804
229.679475
240.172446
251.248360
260.283974
267.862231
273.983130
281.561387
291.179944
295.552015
299.924086
303.421743
304.296157
306.919400
306.919400
307.210872
306.627929
307.502343
306.044986
304.879100
304.879100
301.964386
298.758201
294.969072
291.762887
285.059044
278.646673
270.776945
261.158388
252.997188
243.670103
231.136832
218.312090
207.819119
191.788191
177.506092
162.349578
147.193065
134.076851
115.714152
98.517338
83.069353
67.038425
52.173383
37.016870
19.820056
4.955014
-9.774286
-23.695238
-37.912381
-52.129524
-64.865714
-77.305714
-89.745714
-102.778095
-114.625714
-126.769524
-139.209524
-151.057143
-162.608571
-174.456190
-186.303810
-200.817143
-214.441905
-224.512381
-231.917143
-240.802857
-250.873333
-258.870476
-267.460000
-273.976190
-280.492381
-288.785714
-294.709524
-299.152381
-302.114286
-303.595238
-306.853333
-307.741905
-308.630476
-308.038095
-305.964762
-305.076190
-304.483810
-303.595238
-300.633333
-298.560000
-293.820952
-289.378095
-283.158095
-277.530476
-270.718095
-259.759048
-251.761905
-244.060952
-232.509524
-222.735238
-210.591429
-196.966667
-183.341905
-169.717143
-154.611429
-140.394286
-124.696190
-108.109524
-90.338095
-77.009524
-60.719048
-45.909524
-29.915238
-13.032381
1.457357
15.739456
28.855670
41.680412
57.419869
69.370197
82.777882
95.602624
107.261481
119.503280
132.036551
145.444236
158.268978
168.179007
182.169634
197.034677
211.899719
221.809747
231.428304
240.755389
251.539831
261.158388
268.736645
274.566073
283.018744
290.305530
296.134958
301.672915
304.587629
305.462043
307.210872
308.668229
308.376757
308.376757
307.793814
307.210872
306.044986
304.296157
301.964386
300.507029
295.843486
290.014058
284.476101
278.646673
270.194002
260.866917
251.831303
242.795689
232.885661
220.352390
207.527648
193.828491
179.254920
164.098407
148.358950
135.825679
117.754452
100.557638
83.652296
69.078725
53.047798
38.182755
22.443299
7.286785
-7.997143
-21.621905
-35.542857
-50.648571
-63.088571
-76.417143
-89.745714
-100.704762
-113.440952
-124.103810
-138.024762
-150.168571
-162.016190
-173.271429
-186.007619
-201.409524
-213.553333
-221.846667
-232.213333
-241.987619
-251.169524
-258.574286
-266.571429
-273.383810
-281.677143
-288.193333
-294.413333
-299.744762
-304.483810
-305.964762
-307.445714
-307.445714
-307.149524
-307.741905
-305.372381
-303.891429
-303.595238
-302.114286
-300.929524
-297.967619
-292.636190
-289.674286
-283.454286
-276.345714
-270.125714
-261.536190
-251.761905
-242.580000
-232.213333
-221.550476
-208.518095
-195.781905
-183.045714
-166.755238
-154.019048
-140.690476
-125.584762
-106.332381
-90.930476
-74.640000
-60.422857
-45.020952
-28.434286
-13.032381
2.040300
16.030928
29.730084
44.886598
56.545455
69.661668
83.652296
96.185567
107.844424
120.377694
132.910965
145.735708
157.686036
168.179007
181.586692
198.200562
211.025305
222.975633
230.845361
239.880975
251.248360
259.992502
268.736645
275.440487
282.727273
289.722587
297.009372
301.964386
304.879100
306.627929
306.336457
307.210872
306.044986
308.668229
307.793814
307.793814
306.044986
304.879100
303.130272
299.632615
296.134958
290.888472
284.767573
279.229616
270.776945
261.741331
252.414246
243.087160
232.885661
220.643861
207.527648
194.119963
178.671978
164.098407
150.399250
137.283037
119.794752
103.472352
85.401125
69.370197
53.922212
39.931584
24.483599
7.578257
-7.108571
-20.140952
-35.246667
-49.760000
-63.680952
-76.120952
-88.857143
-99.223810
-112.256190
-124.992381
-136.840000
-148.983810
-162.016190
-171.790476
-184.526667
-199.632381
-213.849524
-223.623810
-232.213333
-240.210476
-249.984762
-259.759048
-267.756190
-274.272381
-281.380952
-289.081905
-295.894286
-300.040952
-303.299048
-304.187619
-305.964762
-306.260952
-306.260952
-307.445714
-305.076190
-305.668571
-305.372381
-303.002857
-300.929524
-298.856190
-293.228571
-288.489524
-282.565714
-276.641905
-268.940952
-260.943810
-250.577143
-242.283810
-232.213333
-221.846667
-207.333333
-195.781905
-181.268571
-166.459048
-153.130476
-139.209524
-122.919048
-105.443810
-90.041905
-72.566667
-58.053333
-43.540000
-26.657143
-11.255238
2.914714
16.905342
31.187441
45.178069
58.585754
71.701968
83.943768
96.768510
109.301781
120.377694
133.785380
147.193065
159.143393
169.344892
182.461106
198.492034
212.774133
223.558575
232.011246
241.921275
252.414246
260.866917
269.319588
275.440487
283.018744
289.139644
297.300843
301.964386
304.587629
306.919400
308.376757
308.668229
308.959700
308.959700
306.627929
306.336457
304.587629
302.838800
300.798500
299.049672
294.677601
289.722587
285.059044
278.355201
271.068416
262.907216
254.163074
243.378632
231.719775
221.809747
208.110590
194.411434
180.129335
164.681350
150.107779
137.865979
120.086223
102.306467
85.401125
69.661668
56.545455
41.388941
25.358013
9.618557
-6.516190
-19.844762
-33.469524
-47.686667
-61.015238
-75.824762
-88.560952
-100.112381
-111.960000
-124.103810
-137.432381
-150.168571
-161.720000
-171.790476
-183.934286
-199.928571
-212.368571
-222.735238
-230.436190
-241.099048
-250.577143
-260.055238
-266.275238
-273.087619
-280.196190
-288.489524
-292.932381
-299.448571
-302.706667
-303.891429
-306.557143
-304.483810
-305.372381
-305.372381
-306.260952
-305.076190
-304.187619
-302.114286
-301.225714
-297.671429
-293.820952
-288.193333
-282.861905
-275.753333
-269.533333
-259.759048
-250.873333
-241.099048
-231.917143
-220.069524
-207.037143
-194.004762
-179.787619
-165.274286
-152.241905
-138.024762
-121.438095
-104.259048
-88.560952
-73.455238
-57.757143
-42.059048
-26.064762
-9.774286
3.789128
18.362699
33.519213
46.052484
60.334583
71.993440
86.567010
98.517338
109.010309
123.000937
134.076851
147.484536
159.726336
169.344892
183.044049
198.492034
213.065604
223.267104
231.719775
242.212746
252.122774
262.907216
271.068416
275.731959
283.310216
290.014058
297.592315
302.547329
304.587629
306.919400
308.085286
309.251172
308.959700
307.793814
306.919400
307.793814
304.879100
304.296157
301.964386
299.341143
295.552015
290.597001
284.767573
278.063730
271.068416
262.615745
254.454545
243.670103
232.594189
221.809747
208.402062
195.285848
180.712277
165.847235
150.107779
137.283037
120.086223
102.889410
85.692596
72.284911
55.671040
41.388941
25.066542
8.452671
-5.035238
-18.363810
-33.173333
-47.982857
-60.126667
-74.343810
-87.080000
-99.223810
-111.071429
-121.734286
-134.766667
-148.391429
-161.127619
-170.901905
-184.822857
-199.336190
-213.257143
-222.142857
-230.140000
-240.210476
-250.280952
-258.870476
-267.163810
-273.976190
-279.307619
-288.489524
-295.301905
-300.337143
-303.891429
-304.780000
-305.372381
-306.260952
-307.741905
-307.741905
-305.372381
-304.187619
-303.299048
-301.818095
-299.744762
-296.782857
-291.747619
-288.193333
-281.380952
-274.864762
-267.163810
-258.870476
-251.465714
-241.987619
-230.732381
-219.180952
-208.221905
-194.004762
-180.972381
-167.347619
-152.538095
-138.024762
-120.549524
-103.370476
-86.487619
-73.751429
-56.276190
-42.059048
-25.472381
-9.478095
4.663543
19.528585
32.061856
46.343955
60.043112
73.742268
86.567010
98.808810
111.050609
121.252109
134.368322
147.484536
159.726336
170.510778
183.626992
199.074977
213.940019
223.558575
232.302718
241.921275
252.414246
261.158388
270.194002
275.149016
283.893158
293.220244
297.883786
301.089972
303.713215
305.170572
306.627929
307.793814
308.668229
308.376757
308.085286
308.668229
306.627929
302.838800
301.672915
299.341143
294.677601
291.471415
284.184630
278.938144
271.068416
262.907216
253.871603
244.835989
232.302718
221.809747
208.693533
194.702905
181.295220
165.847235
151.856607
138.740394
120.669166
104.929709
86.567010
70.827554
58.002812
40.805998
24.775070
9.035614
-5.035238
-18.363810
-32.284762
-47.094286
-59.830476
-75.824762
-87.080000
-98.335238
-111.367619
-123.215238
-135.951429
-148.391429
-160.535238
-170.605714
-184.526667
-200.224762
-212.072381
-222.439048
-230.436190
-240.802857
-250.577143
-259.462857
-266.867619
-274.864762
-280.196190
-289.081905
-295.301905
-298.560000
-302.706667
-304.187619
-305.076190
-306.260952
-307.149524
-307.149524
-306.260952
-306.557143
-303.891429
-300.633333
-299.152381
-296.782857
-292.636190
-287.897143
-281.380952
-274.568571
-266.571429
-257.685714
-250.873333
-240.802857
-230.436190
-220.069524
-206.740952
-194.597143
-180.083810
-165.274286
-150.464762
-138.320952
-121.438095
-103.962857
-86.191429
-71.678095
-55.387619
-40.578095
-24.880000
-10.070476
5.829428
19.528585
33.810684
47.218369
60.626054
74.033739
86.858482
98.808810
111.925023
123.583880
135.534208
148.650422
161.183693
171.093721
185.084349
199.949391
213.940019
224.141518
232.594189
242.504217
252.414246
261.741331
269.902530
277.480787
283.018744
291.179944
298.758201
301.381443
304.587629
306.336457
307.502343
308.085286
308.959700
309.542643
308.668229
308.376757
307.502343
304.004686
302.547329
298.758201
294.677601
290.014058
284.767573
280.104030
271.651359
262.032802
253.871603
243.670103
232.594189
222.101218
210.150890
194.994377
181.003749
166.138707
151.273664
137.283037
121.835052
103.180881
86.567010
71.119025
56.545455
40.805998
26.815370
9.327085
-5.627619
-19.252381
-32.284762
-46.501905
-60.422857
-74.343810
-87.376190
-98.631429
-110.775238
-123.511429
-134.766667
-148.687619
-160.239048
-170.605714
-184.822857
-200.817143
-211.480000
-222.439048
-231.028571
-239.321905
-251.169524
-260.647619
-266.275238
-275.160952
-281.380952
-289.970476
-294.413333
-299.152381
-302.410476
-303.891429
-304.780000
-304.780000
-305.964762
-305.668571
-305.668571
-305.668571
-303.595238
-301.818095
-298.856190
-296.486667
-292.043810
-288.785714
-281.380952
-275.753333
-267.460000
-258.870476
-249.096190
-239.618095
-230.732381
-218.884762
-206.444762
-193.708571
-179.195238
-164.681905
-150.464762
-138.024762
-120.253333
-103.666667
-85.006667
-70.789524
-55.091429
-39.689524
-23.991429
-8.589524
6.703843
20.402999
34.102156
48.384255
61.500469
76.074039
88.315839
99.683224
111.050609
123.000937
136.700094
148.650422
162.349578
171.676664
185.958763
200.532334
214.522962
223.850047
232.011246
242.504217
252.997188
262.324274
269.319588
278.063730
283.893158
292.054358
298.466729
301.964386
305.753515
307.210872
308.376757
309.251172
308.959700
308.668229
308.668229
306.336457
305.462043
304.004686
302.547329
298.758201
295.260544
288.848172
284.767573
277.772259
269.611059
262.615745
253.580131
244.544517
232.885661
220.935333
208.985005
195.285848
180.129335
165.555764
150.399250
138.448922
120.960637
102.597938
86.567010
72.576382
56.836926
41.971884
26.232427
9.327085
-4.146667
-18.660000
-33.173333
-45.020952
-59.238095
-74.047619
-86.487619
-99.223810
-111.663810
-123.807619
-136.840000
-150.464762
-161.127619
-170.901905
-184.526667
-199.040000
-212.072381
-223.031429
-231.620952
-240.802857
-249.688571
-259.462857
-267.163810
-274.272381
-281.677143
-289.081905
-294.709524
-299.744762
-305.076190
-304.187619
-305.668571
-305.668571
-306.557143
-305.668571
-304.187619
-304.483810
-302.410476
-300.633333
-298.560000
-296.782857
-292.340000
-287.600952
-281.084762
-275.457143
-266.275238
-257.685714
-249.392381
-240.506667
-230.436190
-217.107619
-205.852381
-193.708571
-178.010476
-163.793333
-150.168571
-136.840000
-119.957143
-101.297143
-86.191429
-70.789524
-54.202857
-39.393333
-21.918095
-7.700952
6.412371
20.111528
35.850984
48.675726
61.500469
75.782568
87.732896
100.266167
111.633552
123.292409
137.283037
147.776007
160.892221
171.676664
184.501406
200.532334
214.231490
225.015933
233.177132
243.087160
253.288660
263.198688
270.194002
277.189316
285.350515
291.762887
298.175258
303.713215
306.044986
307.793814
309.251172
308.376757
308.376757
308.668229
308.085286
307.793814
306.919400
304.587629
302.838800
300.215558
296.426429
291.179944
284.476101
278.355201
271.651359
261.449859
252.997188
243.670103
232.302718
221.518276
208.110590
194.994377
180.712277
165.555764
151.565136
137.574508
121.252109
102.306467
86.275539
71.993440
57.128397
42.263355
25.066542
10.201500
-5.627619
-18.660000
-33.765714
-46.798095
-60.126667
-73.455238
-86.191429
-97.446667
-111.663810
-124.103810
-136.543810
-148.687619
-161.720000
-171.494286
-185.119048
-199.928571
-213.553333
-222.735238
-232.213333
-242.580000
-252.650476
-260.055238
-268.348571
-273.976190
-281.677143
-289.081905
-294.413333
-300.040952
-302.114286
-303.595238
-305.076190
-304.780000
-305.076190
-307.445714
-305.076190
-304.483810
-302.114286
-301.818095
-300.633333
-295.894286
-291.451429
-287.897143
-279.307619
-275.753333
-267.460000
-257.981905
-249.688571
-239.914286
-228.955238
-217.996190
-206.148571
-191.339048
-178.602857
-164.385714
-150.464762
-135.655238
-118.180000
-101.593333
-84.414286
-69.604762
-54.202857
-39.097143
-22.214286
-6.516190
6.995314
21.568885
35.268041
48.967198
62.957826
75.782568
88.607310
101.140581
112.216495
125.041237
136.408622
149.524836
162.058107
171.385192
186.250234
202.281162
215.105904
225.015933
233.177132
243.378632
254.163074
262.615745
270.485473
278.063730
283.018744
292.637301
298.466729
301.964386
305.462043
306.336457
307.502343
309.834114
308.959700
309.251172
309.834114
306.919400
306.336457
303.713215
301.089972
297.883786
295.260544
288.848172
283.893158
277.480787
271.068416
260.866917
253.288660
243.961575
232.011246
220.935333
208.693533
193.537020
180.129335
164.972821
150.690722
138.157451
119.503280
103.472352
85.401125
71.701968
57.128397
40.514527
26.523899
9.618557
-5.035238
-17.771429
-33.173333
-46.205714
-60.719048
-74.936190
-86.191429
-98.927619
-109.590476
-122.919048
-135.062857
-148.391429
-159.350476
-170.605714
-185.415238
-200.817143
-214.145714
-224.216190
-231.028571
-242.580000
-251.465714
-260.055238
-267.756190
-272.791429
-282.269524
-288.193333
-295.301905
-301.521905
-303.002857
-305.076190
-307.149524
-306.853333
-305.964762
-305.372381
-304.780000
-305.668571
-303.595238
-301.225714
-298.560000
-295.005714
-291.747619
-286.120000
-281.380952
-275.457143
-266.275238
-257.981905
-249.984762
-239.914286
-228.955238
-216.811429
-204.963810
-191.339048
-176.529524
-162.312381
-148.391429
-134.174286
-116.995238
-97.742857
-83.821905
-68.420000
-52.721905
-38.800952
-20.437143
-6.220000
8.452671
22.151828
36.725398
50.716026
63.249297
76.656982
90.356139
102.306467
114.256795
125.041237
137.574508
150.982193
162.349578
174.591378
186.250234
201.698219
215.397376
225.598875
234.051546
244.544517
255.037488
264.073102
271.359888
277.772259
285.933458
293.220244
299.049672
303.421743
306.627929
306.336457
309.251172
308.376757
307.502343
309.251172
308.668229
308.376757
306.919400
304.587629
302.547329
299.632615
295.552015
290.305530
284.767573
277.772259
270.776945
262.324274
254.746017
243.670103
232.885661
221.226804
209.567948
194.994377
180.712277
165.555764
151.273664
138.448922
120.377694
103.763824
86.275539
72.576382
57.711340
40.805998
25.358013
10.492971
-5.331429
-18.660000
-33.173333
-47.094286
-60.126667
-74.343810
-85.006667
-98.631429
-110.182857
-123.215238
-136.247619
-148.391429
-159.350476
-168.532381
-183.045714
-199.336190
-212.368571
-223.031429
-230.732381
-241.987619
-251.169524
-259.166667
-268.052381
-273.680000
-281.380952
-288.785714
-294.709524
-299.448571
-302.410476
-304.187619
-305.076190
-305.964762
-306.853333
-305.668571
-306.260952
-305.372381
-302.706667
-300.633333
-299.448571
-297.079048
-292.340000
-287.008571
-281.677143
-273.976190
-265.979048
-257.389524
-249.392381
-238.729524
-229.251429
-216.219048
-203.482857
-192.227619
-176.825714
-162.608571
-148.391429
-134.470476
-117.883810
-99.520000
-83.821905
-67.827619
-52.425714
-37.616190
-21.325714
-5.627619
8.161200
22.443299
37.308341
50.424555
64.123711
77.239925
90.939082
101.432052
113.965323
125.915651
137.865979
151.565136
161.766635
173.134021
186.541706
202.864105
215.688847
226.473290
235.508903
244.544517
254.454545
264.656045
271.651359
278.646673
286.807873
293.220244
298.758201
303.130272
305.753515
307.210872
308.668229
308.959700
308.376757
308.376757
309.251172
308.668229
308.085286
305.170572
301.964386
299.049672
295.260544
289.139644
284.476101
279.229616
270.776945
261.158388
252.705717
243.378632
231.428304
221.518276
207.819119
193.245548
180.420806
164.389878
150.399250
137.283037
120.377694
103.180881
85.984067
71.410497
57.128397
41.680412
26.232427
9.618557
-5.627619
-19.252381
-34.654286
-47.686667
-60.422857
-74.936190
-87.080000
-99.223810
-111.663810
-123.807619
-137.432381
-149.872381
-160.535238
-171.494286
-185.711429
-201.113333
-213.553333
-223.031429
-231.917143
-241.691429
-251.761905
-259.759048
-267.163810
-273.383810
-281.084762
-290.562857
-296.782857
-300.337143
-303.002857
-304.780000
-305.668571
-305.964762
-306.853333
-306.853333
-303.891429
-304.187619
-302.114286
-300.337143
-299.448571
-295.301905
-291.451429
-286.712381
-280.196190
-273.976190
-265.386667
-257.389524
-248.503810
-238.433333
-228.362857
-216.219048
-203.779048
-191.931429
-176.529524
-162.016190
-148.095238
-133.581905
-116.402857
-99.223810
-82.044762
-68.716190
-52.721905
-37.912381
-20.437143
-4.442857
9.035614
23.609185
37.599813
50.424555
64.415183
77.239925
89.773196
102.597938
113.673852
125.332709
139.323336
150.982193
162.349578
173.425492
187.707591
202.572634
215.688847
224.724461
234.634489
246.001874
255.328960
264.656045
271.942830
278.355201
286.516401
292.345829
298.758201
302.838800
306.336457
307.793814
308.376757
308.959700
307.793814
309.251172
310.125586
307.793814
307.502343
304.879100
302.255858
299.632615
294.094658
290.305530
284.184630
279.229616
270.776945
263.490159
252.414246
241.921275
231.136832
221.226804
209.276476
192.954077
179.254920
163.806935
150.107779
137.574508
118.337395
102.306467
85.109653
70.536082
56.836926
39.931584
24.775070
9.618557
-6.812381
-18.956190
-33.469524
-46.501905
-61.015238
-74.640000
-87.080000
-100.408571
-112.552381
-124.103810
-136.840000
-149.576190
-162.016190
-173.271429
-187.192381
-202.298095
-214.441905
-223.031429
-231.917143
-242.580000
-252.058095
-259.166667
-266.867619
-273.680000
-281.084762
-290.266667
-296.190476
-300.633333
-303.002857
-304.483810
-306.260952
-305.964762
-307.445714
-305.372381
-304.780000
-304.780000
-302.410476
-300.040952
-300.337143
-295.301905
-291.747619
-286.712381
-281.084762
-274.568571
-265.682857
-256.500952
-248.503810
-238.137143
-228.066667
-215.922857
-203.482857
-191.042857
-175.937143
-161.720000
-147.502857
-132.693333
-116.106667
-97.150476
-83.525714
-67.531429
-50.944762
-36.727619
-20.437143
-4.442857
10.784442
24.192127
38.765698
51.881912
65.289597
77.822868
90.064667
102.597938
114.256795
125.624180
139.906279
152.148079
163.806935
173.716963
187.707591
204.029991
215.980319
225.890347
234.925961
244.835989
256.203374
264.364574
271.651359
278.646673
286.807873
293.511715
299.632615
303.130272
305.753515
307.210872
309.542643
308.376757
308.085286
310.417057
308.085286
308.668229
306.919400
304.296157
301.381443
298.758201
294.969072
290.305530
283.893158
277.772259
270.776945
262.324274
253.871603
243.087160
230.845361
219.769447
207.236176
192.954077
179.837863
163.806935
150.982193
136.408622
118.337395
101.432052
85.692596
70.827554
55.379569
39.640112
25.358013
9.327085
-5.923810
-20.437143
-33.469524
-46.798095
-61.903810
-75.232381
-86.487619
-99.816190
-111.663810
-123.807619
-136.543810
-150.168571
-162.016190
-171.790476
-186.303810
-201.705714
-213.553333
-224.512381
-232.213333
-241.987619
-252.946667
-260.647619
-268.052381
-275.457143
-282.269524
-288.193333
-295.301905
-300.929524
-302.410476
-305.076190
-305.964762
-305.964762
-304.780000
-306.260952
-304.187619
-304.187619
-303.595238
-300.929524
-299.744762
-295.005714
-293.228571
-286.712381
-278.419048
-274.272381
-265.090476
-255.908571
-248.800000
-238.137143
-228.362857
-215.922857
-201.705714
-189.858095
-175.344762
-159.646667
-147.206667
-131.212381
-115.218095
-96.854286
-82.340952
-66.346667
-50.352381
-35.542857
-18.660000
-3.258095
10.201500
25.940956
39.931584
52.756326
66.164011
78.114339
91.230553
104.055295
115.422680
127.373008
139.906279
152.731022
164.389878
175.465792
188.873477
204.029991
217.146204
226.764761
234.343018
246.001874
255.911903
264.073102
271.942830
279.812559
286.516401
294.094658
299.341143
302.547329
304.879100
307.210872
308.959700
309.542643
311.000000
309.251172
308.959700
309.251172
306.336457
304.296157
302.255858
298.466729
295.260544
289.431115
283.601687
278.355201
269.611059
260.866917
252.122774
243.087160
231.136832
220.643861
208.110590
192.954077
179.837863
164.681350
150.399250
137.283037
118.337395
102.014995
84.526710
70.536082
56.253983
39.057170
25.066542
8.161200
-5.923810
-18.660000
-35.246667
-47.982857
-61.903810
-75.232381
-87.968571
-100.112381
-111.960000
-123.807619
-136.840000
-149.872381
-161.720000
-170.901905
-186.303810
-202.298095
-215.330476
-224.216190
-233.398095
-242.580000
-252.058095
-259.462857
-268.348571
-273.680000
-284.342857
-289.970476
-295.301905
-300.040952
-303.299048
-305.372381
-306.260952
-304.187619
-306.557143
-305.076190
-304.780000
-304.780000
-301.818095
-300.929524
-299.152381
-295.301905
-291.451429
-286.712381
-279.603810
-272.791429
-265.090476
-255.612381
-246.430476
-237.840952
-227.770476
-215.034286
-203.482857
-188.969524
-175.937143
-160.239048
-147.502857
-131.212381
-114.625714
-96.558095
-80.563810
-65.458095
-50.648571
-34.654286
-19.252381
-3.554286
10.492971
24.192127
39.057170
52.173383
64.998126
78.114339
92.396439
103.472352
115.714152
127.664480
140.197751
152.731022
163.806935
174.591378
187.999063
204.029991
216.854733
227.347704
235.217432
245.710403
255.620431
266.113402
271.068416
279.229616
286.516401
294.969072
299.924086
303.421743
305.170572
307.793814
308.085286
310.125586
309.542643
309.834114
309.251172
308.085286
304.587629
305.170572
302.255858
298.175258
294.969072
288.556701
283.310216
277.772259
269.028116
260.575445
252.122774
241.921275
230.262418
219.186504
207.527648
193.245548
178.963449
164.098407
150.107779
134.951265
118.337395
101.723524
85.109653
71.119025
54.796626
39.348641
23.609185
7.869728
-6.220000
-19.548571
-34.950476
-47.982857
-62.496190
-74.936190
-87.080000
-99.816190
-111.960000
-124.103810
-138.617143
-150.464762
-162.016190
-172.679048
-186.303810
-202.890476
-214.145714
-224.512381
-233.694286
-243.172381
-251.761905
-260.351429
-268.940952
-273.976190
-281.677143
-290.266667
-296.190476
-299.744762
-302.706667
-304.483810
-304.483810
-305.964762
-303.595238
-305.076190
-305.668571
-303.891429
-302.410476
-300.633333
-300.337143
-294.709524
-291.451429
-286.120000
-279.900000
-274.864762
-265.386667
-256.204762
-247.615238
-237.544762
-228.066667
-215.922857
-202.298095
-188.969524
-174.456190
-159.350476
-145.133333
-130.323810
-114.033333
-95.965714
-81.156190
-65.458095
-49.167619
-34.061905
-17.179048
-2.665714
10.784442
25.940956
39.931584
53.047798
65.872540
79.863168
92.687910
104.346767
116.005623
128.247423
140.197751
153.313964
165.847235
175.757263
189.164948
204.321462
217.437676
226.764761
235.217432
246.584817
256.203374
265.530459
272.525773
278.938144
285.933458
294.386129
300.215558
303.713215
305.462043
308.085286
308.376757
309.834114
309.542643
309.542643
308.085286
307.502343
306.336457
304.296157
301.672915
299.049672
295.260544
289.722587
283.893158
276.314902
269.319588
259.701031
253.580131
242.504217
230.845361
218.895033
206.070291
192.079663
177.797563
163.223993
149.233365
134.951265
117.462980
101.432052
84.526710
70.244611
53.922212
39.931584
23.317713
6.703843
-6.220000
-21.029524
-34.358095
-48.871429
-62.792381
-76.417143
-88.264762
-101.000952
-112.256190
-124.696190
-137.136190
-151.057143
-162.016190
-172.382857
-188.080952
-202.298095
-215.330476
-225.104762
-232.509524
-242.876190
-252.354286
-261.240000
-268.940952
-275.160952
-283.454286
-290.266667
-294.709524
-299.744762
-301.818095
-303.595238
-305.964762
-305.076190
-304.780000
-306.260952
-306.260952
-303.891429
-302.706667
-302.114286
-298.263810
-294.413333
-290.859048
-284.342857
-279.603810
-273.680000
-265.386667
-255.908571
-247.911429
-236.952381
-225.993333
-214.441905
-202.001905
-188.377143
-175.048571
-160.239048
-145.429524
-130.916190
-112.552381
-95.077143
-79.971429
-65.161905
-50.352381
-33.765714
-17.475238
-2.961905
11.658857
26.815370
39.931584
52.756326
67.038425
79.571696
92.396439
104.929709
116.588566
127.373008
141.072165
153.022493
164.681350
175.757263
189.456420
205.487348
216.563261
226.764761
235.217432
246.876289
257.369260
265.238988
272.234302
280.104030
287.682287
294.386129
300.798500
304.587629
307.210872
308.668229
308.668229
309.542643
310.125586
308.376757
308.959700
307.502343
305.462043
303.713215
303.421743
300.507029
294.969072
290.014058
285.059044
277.480787
269.028116
259.409560
250.956888
241.921275
230.845361
217.729147
205.778819
191.788191
177.214620
163.806935
148.941893
135.825679
117.171509
100.557638
84.526710
68.495783
54.505155
39.640112
23.609185
7.578257
-7.404762
-21.029524
-35.246667
-48.871429
-62.792381
-76.120952
-89.449524
-102.185714
-113.144762
-126.473333
-138.320952
-151.945714
-163.497143
-172.382857
-186.600000
-203.482857
-214.738095
-225.104762
-232.805714
-243.764762
-252.946667
-261.240000
-269.237143
-273.680000
-284.935238
-290.266667
-295.894286
-300.929524
-303.002857
-303.891429
-306.260952
-305.076190
-305.076190
-306.260952
-305.668571
-304.187619
-302.706667
-301.521905
-298.856190
-294.413333
-290.266667
-285.231429
-279.011429
-273.087619
-264.498095
-255.316190
-247.615238
-236.952381
-227.178095
-215.626667
-202.298095
-187.784762
-173.863810
-159.646667
-144.837143
-131.212381
-113.144762
-94.780952
-80.267619
-64.569524
-49.760000
-32.877143
-17.475238
-1.777143
11.367385
26.232427
40.223055
53.339269
66.746954
79.863168
91.813496
104.929709
115.714152
127.081537
141.363636
152.731022
165.264292
175.465792
189.456420
205.778819
218.020619
225.890347
236.091846
245.127460
256.494845
264.947516
272.234302
279.812559
286.516401
294.677601
300.215558
304.587629
306.919400
308.085286
308.376757
308.959700
310.417057
308.668229
308.376757
308.085286
304.879100
304.587629
302.255858
299.049672
294.969072
290.014058
283.893158
277.189316
268.445173
260.283974
250.665417
241.629803
230.845361
218.312090
206.070291
191.788191
177.797563
162.058107
148.941893
134.659794
117.171509
100.266167
83.652296
69.953140
53.630740
37.891284
22.734770
6.703843
-7.108571
-21.918095
-36.431429
-49.760000
-64.865714
-76.713333
-90.041905
-101.889524
-113.440952
-127.065714
-140.098095
-151.353333
-162.312381
-173.271429
-188.377143
-205.556190
-215.922857
-226.289524
-233.101905
-244.949524
-252.946667
-261.240000
-269.533333
-275.753333
-283.750476
-289.674286
-295.005714
-300.633333
-303.002857
-305.076190
-305.076190
-304.483810
-306.260952
-305.668571
-304.483810
-304.483810
-303.299048
-300.337143
-298.263810
-296.782857
-291.155238
-284.342857
-279.011429
-272.199048
-264.201905
-256.500952
-244.949524
-234.879048
-225.697143
-214.145714
-201.113333
-187.784762
-172.679048
-159.350476
-145.429524
-131.212381
-112.256190
-95.373333
-79.379048
-64.865714
