217.261972
216.969953
143.673239
-37.912381
37.670423
154.769953
104.542723
114.471362
103.082629
82.641315
66.872300
54.023474
37.670423
19.273239
8.760563
-4.739048
-20.437143
-32.580952
-47.982857
-61.607619
-74.047619
-89.449524
-100.704762
-124.400000
-128.842857
-142.763810
-160.239048
-168.532381
-176.825714
-192.227619
-208.221905
-215.922857
-224.808571
-237.248571
-246.726667
-254.427619
-265.090476
-271.310476
-274.864762
-284.935238
-292.340000
-293.228571
-293.228571
-292.043810
-293.820952
-297.967619
-293.820952
-292.636190
-289.674286
-288.489524
-285.231429
-279.900000
-269.237143
-261.240000
-248.207619
-237.248571
-226.881905
-214.441905
-194.300952
-173.863810
-160.535238
-139.505714
-120.845714
-105.147619
-86.191429
-68.716190
-48.871429
-33.765714
-13.624762
1.460094
16.937089
31.538028
45.554930
54.899531
63.368075
74.172770
89.357746
97.534272
104.250704
115.055399
121.479812
125.568075
135.788732
139.876995
150.097653
152.141784
156.522066
168.786854
175.795305
178.131455
192.732394
198.572770
205.581221
219.306103
234.783099
242.375587
250.260094
254.640376
265.445070
268.657277
278.585915
286.178404
287.930516
296.399061
295.815023
307.203756
306.035681
306.327700
306.911737
306.035681
310.123944
309.247887
309.247887
306.035681
306.035681
305.451643
303.407512
299.319249
296.399061
294.354930
285.010329
279.461972
268.949296
263.984977
251.720188
243.543662
235.951174
221.642254
209.961502
196.820657
183.387793
167.618779
154.769953
141.629108
125.276056
108.338967
90.817840
75.048826
61.323944
46.138967
30.369953
14.892958
0.584038
-14.809524
-26.953333
-43.243810
-57.164762
-71.085714
-82.340952
-97.742857
-109.294286
-120.549524
-131.804762
-148.687619
-159.646667
-170.309524
-186.303810
-200.520952
-215.034286
-225.400952
-233.990476
-242.580000
-252.058095
-262.424762
-268.644762
-273.976190
-284.639048
-288.489524
-296.782857
-299.448571
-303.595238
-305.372381
-309.222857
-310.407619
-311.000000
-310.407619
-308.630476
-308.334286
-305.372381
-302.706667
-300.929524
-294.413333
-290.266667
-283.158095
-274.568571
-267.460000
-258.870476
-248.207619
-236.952381
-226.585714
-213.849524
-199.336190
-185.415238
-170.309524
-156.388571
-138.617143
-121.141905
-106.036190
-86.191429
-67.235238
-49.760000
-33.765714
-16.882857
-2.369524
13.140845
28.909859
43.218779
55.191549
66.872300
77.092958
87.897653
100.454460
110.967136
121.771831
131.116432
145.133333
154.769953
165.574648
177.255399
185.431925
200.032864
212.297653
224.562441
233.907042
240.623474
250.260094
258.436620
265.445070
272.745540
278.877934
287.930516
292.602817
299.027230
302.823474
304.867606
306.911737
308.079812
309.539906
308.663850
308.955869
307.495775
306.911737
306.035681
303.699531
301.655399
300.487324
295.230986
289.974648
283.258216
277.417840
268.949296
259.604695
249.968075
242.083568
231.862911
220.474178
207.917371
195.068545
182.219718
164.698592
152.141784
139.292958
121.479812
104.542723
87.021596
72.128638
59.279812
42.926761
27.449765
11.972770
-2.369524
-17.475238
-31.100000
-45.613333
-58.053333
-72.862857
-85.302857
-100.112381
-110.182857
-124.696190
-136.840000
-149.872381
-163.497143
-174.752381
-188.969524
-205.556190
-217.107619
-228.066667
-235.175238
-245.541905
-253.539048
-261.832381
-268.940952
-277.530476
-283.158095
-291.747619
-295.894286
-301.521905
-305.964762
-306.557143
-308.038095
-307.741905
-308.038095
-308.038095
-307.149524
-308.630476
-305.372381
-303.002857
-300.040952
-297.375238
-292.932381
-286.416190
-278.715238
-271.014286
-263.313333
-252.354286
-241.691429
-232.509524
-221.254286
-207.333333
-194.300952
-180.083810
-165.570476
-148.983810
-133.285714
-118.180000
-99.223810
-80.860000
-63.680952
-48.575238
-31.100000
-17.475238
-0.000000
14.600939
28.617840
42.342723
56.067606
68.040376
80.305164
93.446009
104.542723
114.763380
125.860094
137.832864
148.929577
162.362441
173.167136
182.803756
196.528638
210.837559
222.518310
231.862911
240.331455
249.092019
257.560563
264.276995
271.869484
278.877934
284.426291
293.770892
297.859155
301.655399
304.867606
306.619718
308.079812
307.787793
308.371831
308.955869
308.371831
306.619718
305.743662
302.239437
302.531455
299.319249
296.107042
288.222535
283.842254
275.665728
266.613146
258.728638
250.844131
240.915493
230.986854
219.306103
206.457277
192.732394
179.591549
165.282629
151.265728
137.540845
120.895775
102.498592
86.729577
71.252582
56.943662
43.510798
25.989671
11.388732
-5.331429
-18.660000
-33.173333
-45.909524
-59.534286
-74.047619
-86.487619
-99.223810
-111.367619
-123.215238
-137.432381
-150.760952
-162.904762
-172.975238
-189.265714
-204.667619
-217.107619
-227.178095
-234.879048
-246.134286
-254.723810
-261.240000
-268.348571
-276.049524
-285.231429
-293.228571
-297.079048
-302.706667
-304.780000
-307.741905
-305.964762
-306.557143
-307.149524
-306.557143
-308.334286
-307.445714
-305.668571
-302.114286
-300.337143
-295.598095
-291.155238
-286.416190
-279.307619
-273.976190
-264.794286
-255.020000
-244.653333
-234.582857
-222.735238
-210.295238
-197.855238
-183.045714
-168.236190
-153.426667
-137.432381
-124.400000
-105.147619
-87.080000
-71.085714
-54.499048
-38.504762
-22.806667
-7.108571
7.884507
23.361502
36.502347
49.059155
63.368075
74.464789
87.605634
98.702347
110.967136
121.479812
134.036620
145.425352
159.150235
170.538967
179.883568
194.484507
209.085446
221.642254
230.402817
239.455399
247.923944
256.100469
263.692958
270.409390
277.709859
285.302347
292.310798
298.151174
301.947418
304.283568
306.911737
307.787793
308.955869
309.247887
309.247887
307.203756
306.911737
306.327700
303.699531
301.947418
299.027230
294.646948
288.514554
282.966197
276.541784
268.073239
259.020657
249.968075
240.623474
229.818779
219.598122
206.165258
192.440376
179.591549
163.822535
149.513615
136.664789
120.019718
101.622535
86.145540
70.960563
55.775587
41.174648
24.529577
8.760563
-4.739048
-20.140952
-33.173333
-47.094286
-61.015238
-73.751429
-86.783810
-100.112381
-112.848571
-123.807619
-138.617143
-152.241905
-164.385714
-175.048571
-189.858095
-205.852381
-217.996190
-225.993333
-236.063810
-246.430476
-255.908571
-262.424762
-268.940952
-277.530476
-286.416190
-290.859048
-296.190476
-300.929524
-304.187619
-306.557143
-306.853333
-307.741905
-308.038095
-308.334286
-307.149524
-305.076190
-305.076190
-302.114286
-301.225714
-296.486667
-292.636190
-286.416190
-279.011429
-273.680000
-265.090476
-253.835238
-244.949524
-234.879048
-222.142857
-211.183810
-198.447619
-183.341905
-169.420952
-151.945714
-139.801905
-123.807619
-104.555238
-88.264762
-73.159048
-55.980000
-40.874286
-24.880000
-9.181905
6.424413
20.149296
34.458216
47.015023
61.323944
74.172770
87.021596
98.702347
110.967136
121.771831
133.744601
146.885446
158.566197
170.830986
180.467606
195.068545
209.377465
221.350235
228.942723
238.287324
248.215962
257.268545
263.692958
272.161502
278.585915
286.470423
292.018779
298.735211
302.239437
305.743662
306.035681
307.787793
308.955869
308.955869
308.079812
307.203756
306.619718
303.991549
301.655399
301.363380
298.735211
294.354930
287.346479
281.214085
273.329577
266.905164
258.144601
248.800000
238.579343
228.358685
218.138028
205.581221
190.688263
176.963380
163.530516
148.345540
135.204695
116.807512
100.454460
85.561502
70.376526
56.067606
38.838498
23.653521
7.300469
-6.812381
-20.140952
-35.839048
-49.463810
-63.977143
-77.305714
-90.338095
-103.074286
-114.625714
-126.769524
-139.505714
-154.019048
-166.162857
-176.233333
-192.227619
-207.037143
-219.180952
-229.547619
-238.729524
-247.615238
-257.093333
-263.905714
-271.310476
-275.753333
-286.120000
-292.340000
-298.856190
-303.595238
-304.780000
-307.445714
-308.038095
-309.222857
-307.149524
-306.260952
-307.445714
-307.149524
-303.891429
-302.114286
-299.744762
-296.782857
-292.340000
-287.304762
-279.307619
-273.087619
-265.090476
-254.427619
-246.430476
-234.879048
-224.216190
-211.480000
-197.262857
-184.230476
-169.717143
-154.611429
-138.617143
-124.103810
-105.147619
-87.672381
-72.270476
-56.572381
-41.466667
-26.064762
-9.774286
5.256338
19.857277
34.750235
47.599061
61.031925
73.588732
86.145540
99.286385
109.215023
122.063850
133.160563
147.177465
159.442254
170.830986
181.051643
195.944601
210.837559
221.642254
230.986854
239.747418
247.631925
256.976526
265.445070
271.577465
278.585915
286.762441
294.062911
298.443192
303.407512
304.867606
307.203756
308.371831
308.955869
310.123944
308.663850
308.371831
307.787793
304.867606
302.823474
301.363380
299.027230
294.646948
287.346479
281.798122
275.957746
265.737089
257.560563
248.507981
238.287324
228.650704
216.677934
204.997183
190.688263
176.087324
161.194366
147.761502
134.036620
116.515493
97.826291
82.641315
68.040376
53.731455
37.962441
21.609390
5.840376
-7.997143
-21.325714
-35.839048
-50.056190
-62.200000
-76.417143
-90.930476
-101.297143
-114.329524
-127.361905
-139.209524
-154.315238
-164.978095
-176.529524
-193.412381
-207.037143
-220.069524
-228.955238
-238.137143
-247.022857
-256.500952
-263.609524
-271.310476
-280.788571
-286.120000
-293.820952
-299.448571
-302.410476
-305.668571
-305.964762
-307.445714
-307.741905
-307.741905
-308.038095
-307.149524
-305.964762
-304.780000
-302.114286
-299.152381
-297.079048
-291.747619
-286.712381
-279.011429
-273.383810
-264.794286
-253.835238
-245.838095
-235.175238
-223.920000
-210.887619
-197.262857
-184.230476
-168.532381
-153.722857
-140.394286
-124.992381
-107.220952
-89.449524
-72.862857
-56.868571
-42.059048
-24.583810
-10.662857
4.088263
18.689202
33.582160
47.307042
60.447887
73.588732
86.437559
98.994366
110.091080
121.771831
133.744601
146.301408
157.690141
170.830986
179.591549
196.236620
209.669484
221.058216
230.402817
238.871362
246.755869
257.268545
265.153052
272.453521
280.630047
286.762441
293.770892
300.779343
303.407512
306.911737
307.787793
308.663850
308.955869
308.371831
308.663850
307.787793
305.451643
303.991549
301.947418
300.487324
297.859155
293.186854
286.470423
282.674178
273.329577
264.569014
257.268545
247.631925
237.119249
227.482629
215.801878
202.953052
189.228169
175.795305
160.026291
146.301408
132.576526
113.595305
96.074178
80.597183
66.580282
51.395305
35.042254
18.689202
2.920188
-9.774286
-23.991429
-37.616190
-53.610476
-66.642857
-77.898095
-93.003810
-103.962857
-116.699048
-129.731429
-142.467619
-156.388571
-168.236190
-178.602857
-193.412381
-209.702857
-220.365714
-230.140000
-239.321905
-248.503810
-259.166667
-264.201905
-270.421905
-278.715238
-287.304762
-292.340000
-299.448571
-302.410476
-305.964762
-308.334286
-308.038095
-309.519048
-308.334286
-306.557143
-305.964762
-306.260952
-305.076190
-302.706667
-301.225714
-298.263810
-292.636190
-286.416190
-279.307619
-270.421905
-263.609524
-253.539048
-244.357143
-234.286667
-223.327619
-210.295238
-196.374286
-182.157143
-168.532381
-152.834286
-139.801905
-123.511429
-105.443810
-88.560952
-72.270476
-56.572381
-41.170476
-25.176190
-9.478095
5.256338
19.565258
33.874178
47.599061
61.323944
73.880751
86.729577
98.994366
109.799061
122.647887
135.496714
146.593427
160.318310
171.707042
181.051643
197.988732
211.421596
222.226291
230.986854
240.331455
248.215962
258.436620
264.276995
273.037559
280.338028
286.762441
294.062911
299.903286
303.699531
306.911737
308.079812
307.787793
308.663850
308.371831
308.663850
307.787793
306.911737
304.867606
303.407512
302.239437
298.443192
292.602817
285.886385
279.169953
273.329577
265.445070
254.640376
247.047887
235.367136
225.146479
214.341784
201.492958
189.520188
175.503286
159.442254
146.009390
131.700469
113.887324
96.366197
81.181221
65.996244
51.103286
34.166197
19.565258
3.212207
-10.662857
-25.176190
-39.393333
-53.018095
-66.050476
-79.971429
-93.003810
-103.666667
-115.810476
-129.435238
-142.763810
-156.684762
-167.347619
-178.899048
-194.597143
-209.110476
-220.069524
-230.140000
-237.840952
-248.207619
-257.685714
-263.609524
-272.495238
-277.826667
-286.416190
-293.820952
-299.744762
-303.299048
-304.187619
-306.853333
-306.557143
-307.741905
-308.334286
-308.038095
-306.557143
-305.372381
-303.595238
-300.929524
-299.744762
-296.486667
-290.859048
-285.823810
-279.603810
-271.310476
-263.313333
-252.946667
-246.134286
-234.286667
-222.142857
-209.999048
-196.670476
-183.638095
-167.051429
-153.426667
-139.209524
-123.511429
-106.036190
-87.672381
-72.270476
-55.683810
-41.170476
-24.583810
-8.293333
6.132394
19.857277
32.706103
47.015023
60.447887
73.296714
87.605634
99.286385
110.091080
121.771831
134.912676
146.885446
161.486385
170.246948
182.219718
197.696714
211.421596
223.102347
230.694836
240.623474
250.260094
259.020657
267.197183
274.205634
281.506103
288.222535
295.523005
300.195305
305.159624
306.619718
308.371831
309.247887
308.663850
307.787793
307.495775
308.371831
305.743662
305.159624
303.407512
300.195305
296.983099
292.894836
285.886385
280.630047
272.745540
264.276995
256.392488
246.171831
235.951174
224.854460
214.341784
202.076995
186.600000
174.043192
157.982160
143.673239
129.072300
110.383099
94.614085
77.676995
63.076056
49.059155
32.414085
16.061033
0.876056
-13.624762
-28.434286
-40.578095
-55.091429
-68.716190
-81.748571
-95.965714
-106.332381
-119.364762
-132.100952
-145.429524
-158.461905
-170.605714
-180.972381
-196.078095
-211.183810
-222.439048
-230.436190
-242.283810
-249.688571
-257.389524
-265.090476
-272.199048
-281.677143
-287.600952
-294.413333
-299.744762
-303.299048
-307.149524
-308.038095
-307.149524
-308.926667
-307.445714
-307.741905
-307.149524
-305.964762
-303.891429
-301.521905
-299.152381
-295.598095
-290.266667
-284.046667
-277.530476
-271.902857
-261.832381
-253.539048
-244.357143
-233.694286
-222.439048
-209.406667
-196.374286
-183.341905
-167.051429
-151.057143
-138.024762
-122.919048
-103.370476
-87.080000
-71.678095
-54.499048
-39.393333
-23.399048
-8.589524
6.132394
21.901408
35.918310
47.891080
61.323944
74.464789
87.021596
100.454460
110.967136
123.815962
135.496714
148.929577
160.610329
170.830986
182.511737
197.696714
213.465728
222.518310
230.986854
241.499531
250.552113
259.604695
266.029108
275.373709
282.090141
289.682629
295.523005
300.487324
305.159624
306.911737
308.371831
308.371831
307.495775
308.371831
308.663850
308.079812
307.203756
304.575587
302.823474
300.195305
297.859155
291.726761
285.886385
280.630047
273.329577
264.569014
254.348357
246.463850
235.951174
224.270423
211.421596
199.156808
185.723944
170.538967
154.769953
143.965258
129.072300
108.923005
92.569953
77.092958
61.615962
48.183099
30.661972
16.061033
0.292019
-14.809524
-28.138095
-42.355238
-56.868571
-69.900952
-82.340952
-95.077143
-107.517143
-119.068571
-131.804762
-143.652381
-157.869524
-168.532381
-181.268571
-196.670476
-211.776190
-223.031429
-231.324762
-241.691429
-250.873333
-259.166667
-265.682857
-273.680000
-281.380952
-289.081905
-295.598095
-298.560000
-305.076190
-305.372381
-307.149524
-308.038095
-306.853333
-307.741905
-307.445714
-307.741905
-305.964762
-302.706667
-300.040952
-298.856190
-294.117143
-289.081905
-282.565714
-278.419048
-271.014286
-260.647619
-251.465714
-243.764762
-231.917143
-221.550476
-208.221905
-196.670476
-182.453333
-166.755238
-152.241905
-138.320952
-122.919048
-103.074286
-86.783810
-70.789524
-54.795238
-40.281905
-23.399048
-8.885714
6.424413
21.025352
35.042254
47.599061
61.323944
74.756808
87.021596
100.746479
110.675117
123.815962
135.496714
148.345540
160.902347
170.246948
182.511737
197.404695
212.005634
223.978404
231.862911
241.499531
252.012207
259.896714
267.197183
275.665728
283.550235
289.098592
295.815023
300.487324
304.575587
307.203756
308.079812
308.663850
308.663850
308.371831
308.371831
308.079812
306.035681
303.699531
302.823474
300.779343
296.983099
292.602817
285.886385
279.753991
272.161502
263.692958
254.348357
245.587793
234.783099
225.146479
213.173709
200.616901
186.600000
171.999061
155.938028
141.921127
127.904225
108.923005
90.525822
75.924883
61.031925
47.599061
31.830047
15.476995
-0.592381
-14.217143
-28.138095
-42.355238
-55.980000
-68.123810
-82.933333
-94.484762
-106.036190
-119.068571
-130.323810
-144.244762
-156.980952
-169.420952
-180.380000
-196.670476
-211.183810
-221.254286
-231.620952
-242.580000
-250.873333
-258.870476
-265.090476
-272.199048
-280.788571
-287.600952
-294.117143
-298.856190
-302.114286
-305.372381
-305.668571
-305.964762
-306.557143
-307.445714
-307.445714
-306.557143
-304.483810
-303.299048
-302.410476
-299.744762
-294.413333
-290.859048
-284.046667
-276.049524
-268.940952
-260.647619
-252.058095
-241.987619
-232.509524
-219.477143
-208.221905
-193.412381
-180.676190
-164.681905
-150.168571
-136.840000
-120.253333
-103.370476
-86.487619
-70.493333
-53.610476
-38.208571
-21.918095
-7.404762
7.884507
21.609390
35.918310
49.351174
63.076056
76.508920
89.065728
101.622535
113.887324
124.107981
137.540845
149.221596
162.946479
172.875117
185.431925
199.740845
214.049765
225.146479
233.907042
242.375587
253.180282
260.772770
268.365258
276.249765
283.550235
292.018779
296.983099
301.363380
306.327700
307.203756
308.955869
308.663850
308.663850
308.955869
308.371831
307.203756
305.743662
304.575587
302.239437
300.487324
297.275117
291.434742
285.302347
279.169953
271.577465
263.108920
253.472300
244.419718
233.030986
222.226291
211.129577
197.988732
184.847887
169.370892
154.185915
140.753052
125.276056
106.878873
89.941784
72.712676
59.279812
44.970892
27.157746
12.556808
-2.961905
-16.586667
-30.803810
-44.132381
-57.757143
-72.862857
-84.710476
-97.150476
-109.886667
-121.141905
-133.878095
-147.502857
-160.831429
-171.494286
-184.230476
-199.632381
-212.960952
-224.512381
-232.805714
-240.506667
-251.169524
-259.166667
-266.867619
-273.976190
-282.565714
-289.081905
-294.413333
-301.818095
-304.483810
-305.372381
-305.668571
-306.853333
-307.149524
-307.741905
-307.445714
-306.853333
-303.891429
-303.299048
-300.337143
-299.152381
-294.117143
-289.378095
-283.158095
-275.753333
-267.163810
-259.462857
-249.984762
-241.691429
-231.917143
-219.180952
-207.629524
-194.004762
-180.083810
-166.162857
-150.464762
-135.062857
-118.476190
-101.889524
-85.006667
-69.308571
-52.721905
-38.504762
-21.325714
-5.627619
9.344601
22.777465
36.210329
51.103286
62.784038
77.092958
89.357746
103.374648
113.303286
125.568075
138.416901
150.389671
164.114554
173.167136
185.723944
201.784977
214.925822
225.730516
235.659155
242.375587
252.596244
261.940845
269.241315
276.249765
283.258216
292.310798
297.567136
301.947418
304.867606
306.911737
308.079812
308.955869
308.663850
310.123944
308.955869
306.911737
306.619718
305.451643
303.407512
300.195305
296.399061
292.310798
285.302347
278.877934
270.701408
260.772770
253.764319
243.251643
233.615023
222.226291
208.209390
196.820657
182.219718
167.910798
155.061972
142.213146
123.523944
105.418779
88.773709
73.880751
59.571831
44.094836
28.909859
12.556808
-2.665714
-17.475238
-31.100000
-43.540000
-58.645714
-71.381905
-84.710476
-97.446667
-108.405714
-121.141905
-132.397143
-147.206667
-159.054286
-170.605714
-184.230476
-199.632381
-213.553333
-224.512381
-232.805714
-242.580000
-251.465714
-259.166667
-267.756190
-273.976190
-281.677143
-287.897143
-294.413333
-300.337143
-303.299048
-306.260952
-305.964762
-307.741905
-307.445714
-305.964762
-305.076190
-307.149524
-305.372381
-303.299048
-299.152381
-297.375238
-294.709524
-289.081905
-282.269524
-274.272381
-267.756190
-258.870476
-249.392381
-241.395238
-229.547619
-219.773333
-207.037143
-192.820000
-178.899048
-164.681905
-150.168571
-134.174286
-117.883810
-99.816190
-83.525714
-67.235238
-51.833333
-37.912381
-21.325714
-5.627619
9.052582
23.945540
36.502347
50.227230
64.244131
76.216901
89.941784
101.622535
112.427230
124.400000
136.956808
149.805634
162.654460
172.583099
186.892019
202.076995
215.217840
225.438498
234.491080
244.127700
254.348357
261.356808
270.993427
276.249765
285.594366
290.266667
296.983099
303.407512
304.867606
307.203756
308.663850
309.247887
308.955869
308.079812
308.079812
307.787793
306.035681
304.283568
302.531455
300.779343
297.567136
290.266667
286.178404
278.293897
269.533333
261.648826
252.012207
241.791549
232.738967
221.350235
209.961502
197.112676
181.927700
168.494836
153.309859
139.876995
123.231925
104.542723
89.357746
72.420657
58.695775
44.386854
27.741784
13.724883
-2.961905
-17.771429
-30.803810
-45.613333
-58.349524
-71.678095
-84.710476
-97.742857
-108.405714
-121.438095
-135.062857
-148.095238
-160.831429
-171.198095
-184.230476
-201.705714
-214.145714
-224.808571
-233.990476
-243.468571
-252.058095
-259.462857
-267.460000
-272.199048
-281.677143
-289.081905
-294.413333
-300.633333
-303.299048
-305.372381
-307.445714
-306.260952
-307.149524
-306.557143
-306.260952
-305.076190
-304.187619
-301.521905
-299.744762
-297.079048
-293.820952
-287.897143
-281.973333
-273.383810
-267.460000
-259.462857
-248.800000
-239.321905
-228.955238
-218.884762
-205.260000
-192.227619
-176.825714
-161.720000
-147.799048
-134.470476
-114.921905
-99.520000
-81.156190
-66.050476
-50.648571
-36.431429
-19.548571
-3.554286
13.432864
25.697653
39.422535
52.271362
66.288263
79.137089
91.693897
103.958685
115.931455
126.736150
139.584977
152.725822
164.114554
176.671362
189.228169
203.829108
218.722066
228.066667
236.243192
245.879812
255.516432
263.692958
268.949296
278.001878
284.718310
291.726761
297.567136
302.239437
304.867606
306.619718
308.663850
309.831925
309.247887
309.247887
308.079812
308.371831
306.327700
303.115493
302.531455
300.487324
296.399061
290.266667
283.258216
275.665728
268.365258
260.188732
250.552113
242.083568
231.278873
220.474178
209.085446
195.068545
181.927700
167.326761
150.973709
138.708920
121.771831
103.958685
86.437559
71.836620
57.235681
41.466667
25.405634
10.804695
-4.739048
-18.956190
-33.173333
-47.686667
-60.719048
-74.640000
-88.264762
-99.520000
-110.775238
-123.215238
-136.247619
-150.168571
-161.720000
-172.382857
-185.415238
-202.001905
-215.034286
-224.512381
-233.990476
-244.060952
-252.946667
-261.240000
-267.756190
-274.568571
-281.380952
-289.970476
-294.709524
-300.929524
-303.299048
-306.260952
-307.149524
-307.149524
-305.372381
-306.260952
-306.557143
-305.668571
-304.187619
-301.818095
-299.744762
-297.671429
-293.820952
-287.600952
-281.084762
-273.383810
-267.460000
-257.389524
-248.207619
-239.914286
-228.362857
-217.403810
-204.963810
-192.523810
-177.714286
-162.312381
-148.095238
-133.285714
-116.995238
-97.446667
-81.156190
-65.161905
-49.760000
-35.839048
-18.363810
-3.258095
10.804695
24.821596
39.130516
51.687324
64.536150
78.553052
90.817840
103.374648
115.347418
125.860094
139.584977
151.557746
164.698592
174.043192
188.352113
203.245070
216.677934
226.606573
235.367136
245.003756
254.932394
262.232864
270.993427
277.125822
283.842254
292.310798
297.567136
302.239437
305.451643
307.787793
308.079812
309.247887
309.247887
308.663850
308.371831
308.079812
306.619718
303.991549
300.779343
299.027230
295.230986
290.850704
284.134272
275.665728
268.365258
259.896714
250.552113
241.791549
230.110798
220.474178
207.917371
195.652582
180.759624
167.034742
152.141784
136.664789
120.895775
103.082629
87.021596
71.544601
55.775587
41.174648
24.529577
9.928638
-4.442857
-19.252381
-32.580952
-46.798095
-59.830476
-73.751429
-87.080000
-99.520000
-111.071429
-122.919048
-135.655238
-149.576190
-161.127619
-171.790476
-185.415238
-199.336190
-214.441905
-225.104762
-234.582857
-242.580000
-252.650476
-259.759048
-267.163810
-276.049524
-282.269524
-289.970476
-293.524762
-301.225714
-302.114286
-303.595238
-305.964762
-307.149524
-306.260952
-305.372381
-305.964762
-304.483810
-304.483810
-302.114286
-300.633333
-297.375238
-292.340000
-286.712381
-280.196190
-273.680000
-265.979048
-257.685714
-247.615238
-238.729524
-227.770476
-215.330476
-204.667619
-191.339048
-176.529524
-161.127619
-146.614286
-131.804762
-114.329524
-97.150476
-79.971429
-64.569524
-50.352381
-33.469524
-16.882857
-2.369524
12.848826
25.697653
40.298592
54.315493
67.164319
79.429108
94.030047
104.542723
116.223474
129.364319
140.753052
153.309859
164.698592
175.795305
189.520188
205.289202
218.430047
227.774648
237.119249
246.171831
255.224413
264.276995
271.285446
279.753991
286.178404
295.523005
299.611268
303.115493
306.035681
306.327700
308.371831
308.955869
309.247887
308.371831
307.787793
309.247887
306.327700
304.867606
302.823474
299.027230
294.938967
289.098592
282.674178
275.957746
268.657277
259.020657
249.968075
241.791549
230.694836
218.722066
205.873239
193.024413
179.883568
164.114554
149.805634
135.788732
118.851643
100.454460
84.685446
69.792488
55.191549
39.130516
22.777465
8.176526
-7.404762
-20.140952
-36.135238
-48.279048
-61.903810
-76.417143
-89.745714
-101.297143
-114.625714
-125.288571
-138.913333
-152.538095
-164.089524
-174.160000
-188.969524
-203.779048
-216.811429
-225.993333
-235.471429
-243.764762
-253.835238
-262.720952
-268.348571
-276.938095
-282.269524
-290.266667
-298.263810
-300.337143
-303.299048
-305.964762
-304.780000
-306.260952
-307.741905
-307.149524
-305.668571
-304.483810
-305.076190
-301.225714
-299.744762
-297.375238
-293.228571
-287.008571
-280.196190
-274.864762
-264.794286
-255.612381
-246.726667
-237.840952
-227.178095
-216.811429
-203.779048
-190.154286
-174.752381
-159.942857
-146.318095
-131.804762
-113.144762
-95.373333
-79.379048
-61.903810
-48.871429
-33.173333
-15.994286
-1.480952
13.140845
26.281690
41.174648
53.439437
66.872300
81.473239
93.153991
105.126761
117.391549
128.488263
141.045070
153.601878
166.450704
176.379343
190.104225
207.041315
218.430047
228.650704
237.411268
246.171831
256.684507
263.984977
271.869484
278.585915
286.470423
294.062911
300.195305
303.699531
305.743662
307.495775
308.955869
309.831925
309.831925
309.539906
308.955869
308.663850
305.159624
303.115493
303.407512
299.027230
295.230986
289.390610
282.674178
275.373709
266.029108
258.728638
249.092019
241.499531
229.234742
217.846009
205.581221
191.856338
178.423474
161.778404
147.761502
134.912676
117.683568
98.118310
83.809390
67.456338
53.147418
36.502347
22.485446
5.548357
-9.181905
-22.510476
-37.023810
-50.352381
-64.569524
-77.898095
-89.745714
-103.666667
-114.329524
-127.065714
-140.986667
-153.426667
-165.866667
-175.937143
-190.746667
-205.556190
-217.700000
-226.585714
-236.952381
-245.541905
-253.835238
-261.832381
-270.421905
-276.641905
-285.527619
-290.562857
-297.671429
-300.929524
-303.299048
-303.891429
-305.372381
-305.668571
-307.149524
-306.260952
-305.372381
-305.668571
-302.706667
-300.929524
-299.448571
-296.782857
-293.228571
-286.416190
-280.788571
-272.791429
-263.313333
-256.204762
-246.134286
-237.544762
-224.808571
-214.441905
-201.409524
-186.303810
-174.160000
-157.277143
-144.540952
-129.435238
-110.775238
-94.484762
-77.009524
-62.200000
-46.798095
-30.803810
-14.217143
1.168075
13.724883
28.325822
43.510798
56.359624
70.084507
82.057277
95.198122
107.170892
117.683568
130.240376
143.089202
155.938028
167.618779
178.131455
193.024413
207.625352
220.182160
229.526761
239.747418
248.507981
257.268545
264.569014
272.453521
280.630047
287.054460
295.523005
300.487324
303.991549
306.327700
307.203756
309.247887
310.415962
310.123944
308.955869
308.955869
308.955869
305.159624
303.699531
301.071362
299.611268
293.770892
288.806573
284.134272
275.665728
266.321127
257.560563
250.260094
240.039437
228.650704
217.553991
205.873239
191.564319
177.547418
162.070423
146.885446
132.576526
115.931455
98.410329
84.101408
68.332394
52.271362
37.086385
20.733333
5.548357
-8.589524
-22.214286
-36.431429
-51.240952
-63.680952
-77.601905
-90.041905
-102.185714
-113.144762
-126.177143
-139.505714
-152.834286
-164.681905
-175.937143
-189.561905
-206.148571
-217.700000
-227.474286
-237.840952
-246.430476
-254.427619
-261.536190
-269.533333
-277.234286
-284.935238
-290.859048
-297.671429
-302.114286
-303.002857
-305.372381
-305.964762
-307.149524
-307.149524
-306.260952
-306.557143
-304.780000
-303.002857
-302.410476
-299.152381
-295.301905
-291.451429
-285.823810
-279.603810
-273.383810
-263.905714
-254.427619
-246.134286
-236.360000
-224.808571
-214.441905
-200.224762
-186.007619
-173.271429
-156.092381
-143.948571
-128.546667
-108.701905
-92.707619
-75.824762
-61.903810
-45.909524
-29.915238
-13.920952
0.876056
14.600939
29.201878
41.466667
55.191549
69.208451
82.349296
94.322066
106.002817
117.099531
129.072300
142.213146
156.230047
168.202817
178.131455
192.732394
208.501408
219.598122
229.818779
238.871362
248.215962
257.560563
266.029108
272.745540
280.630047
287.054460
293.770892
300.487324
302.239437
307.203756
308.955869
310.123944
309.247887
310.123944
310.123944
308.663850
307.495775
306.035681
304.867606
301.071362
298.443192
295.230986
287.930516
282.090141
275.957746
265.737089
258.436620
248.800000
238.287324
228.358685
217.261972
204.705164
190.104225
176.671362
160.610329
148.345540
133.160563
115.055399
98.994366
80.597183
66.872300
53.147418
35.918310
20.149296
3.212207
-10.959048
-22.806667
-38.208571
-51.833333
-64.865714
-78.194286
-91.522857
-101.297143
-114.921905
-127.658095
-140.098095
-154.019048
-163.497143
-175.344762
-190.746667
-205.260000
-218.292381
-226.585714
-237.248571
-245.541905
-255.020000
-261.832381
-270.718095
-277.826667
-283.158095
-290.859048
-296.190476
-300.040952
-303.299048
-303.891429
-305.668571
-306.557143
-305.964762
-305.964762
-305.964762
-305.372381
-303.299048
-300.337143
-300.337143
-295.301905
-291.155238
-284.935238
-279.603810
-269.533333
-263.609524
-254.131429
-245.838095
-233.990476
-223.623810
-212.072381
-198.447619
-187.488571
-170.605714
-156.980952
-143.060000
-125.880952
-108.998095
-91.226667
-76.120952
-60.422857
-44.724762
-28.434286
-12.736190
3.212207
17.229108
31.538028
44.678873
59.279812
71.544601
83.225352
98.410329
107.462911
120.895775
133.452582
145.425352
158.566197
170.538967
180.759624
195.360563
210.253521
221.642254
230.986854
240.331455
250.552113
259.604695
267.489202
274.497653
281.214085
290.558685
296.691080
300.195305
306.911737
307.495775
309.831925
310.707981
310.123944
309.831925
310.123944
308.955869
307.787793
307.495775
303.407512
301.071362
298.443192
292.310798
287.930516
281.214085
275.373709
265.737089
255.516432
248.215962
237.119249
228.650704
215.217840
202.369014
189.812207
174.627230
158.566197
145.425352
130.240376
112.719249
94.614085
79.429108
65.704225
49.935211
34.166197
18.397183
2.336150
-12.736190
-25.472381
-40.578095
-54.202857
-66.642857
-80.267619
-93.892381
-104.851429
-117.291429
-130.027619
-142.467619
-156.388571
-166.459048
-179.491429
-194.004762
-209.110476
-219.180952
-227.178095
-238.729524
-247.911429
-255.020000
-263.017143
-270.718095
-278.419048
-287.304762
-291.747619
-298.263810
-302.706667
-303.891429
-305.964762
-307.445714
-307.445714
-306.260952
-307.445714
-306.557143
-304.780000
-303.595238
-301.225714
-298.560000
-295.301905
-289.081905
-284.935238
-278.419048
-270.125714
-261.536190
-254.427619
-244.060952
-234.286667
-223.623810
-211.776190
-198.743810
-185.415238
-170.013333
-155.203810
-141.579048
-125.880952
-107.220952
-89.449524
-73.751429
-57.757143
-42.947619
-26.953333
-11.847619
4.088263
18.981221
31.830047
45.554930
59.863850
72.420657
85.269484
97.534272
108.630986
120.603756
133.160563
146.593427
159.150235
170.246948
180.759624
196.236620
210.253521
222.518310
231.278873
241.791549
251.136150
259.604695
268.073239
274.205634
281.798122
289.098592
297.275117
301.363380
306.619718
306.619718
308.371831
311.000000
309.831925
309.539906
309.831925
308.663850
307.203756
306.327700
304.283568
301.655399
298.443192
294.062911
286.762441
281.798122
273.621596
265.737089
256.684507
246.463850
237.703286
225.438498
214.049765
201.784977
187.476056
175.503286
158.858216
145.717371
129.364319
111.551174
94.906103
79.137089
63.076056
48.183099
32.122066
16.937089
0.876056
-13.032381
-26.360952
-40.578095
-55.387619
-67.827619
-80.860000
-93.596190
-105.740000
-117.291429
-130.323810
-142.171429
-156.092381
-167.347619
-178.602857
-192.820000
-209.406667
-220.365714
-229.547619
-238.729524
-246.726667
-256.500952
-265.090476
-271.310476
-280.196190
-286.712381
-292.340000
-297.079048
-302.410476
-304.483810
-305.964762
-304.483810
-306.557143
-306.557143
-306.260952
-305.964762
-304.483810
-302.706667
-300.633333
-297.967619
-294.709524
-290.266667
-284.935238
-277.530476
-270.125714
-260.943810
-252.946667
-244.060952
-234.582857
-222.142857
-211.776190
-198.151429
-184.230476
-169.124762
-154.019048
-139.801905
-125.584762
-107.813333
-90.041905
-73.751429
-57.460952
-44.132381
-27.249524
-10.959048
4.672300
18.981221
32.122066
45.846948
58.987793
72.420657
85.561502
96.950235
108.630986
121.771831
131.992488
146.885446
158.274178
169.370892
181.051643
196.528638
212.297653
222.226291
230.694836
240.623474
249.968075
260.480751
266.321127
274.205634
280.922066
289.390610
297.275117
300.195305
305.451643
307.203756
308.371831
309.539906
308.955869
309.539906
310.415962
308.371831
307.787793
305.743662
303.115493
300.779343
297.859155
291.726761
286.762441
280.046009
272.453521
263.984977
255.808451
246.171831
236.827230
225.438498
215.509859
202.369014
