-189.097514
-204.855641
-215.856597
-225.668260
-236.074570
-246.183556
-255.697897
-262.833652
-269.969407
-278.294455
-285.727533
-292.863289
-298.215105
-302.377629
-303.269598
-305.945507
-304.756214
-305.648184
-307.432122
-305.648184
-305.053537
-303.566922
-302.972275
-302.080306
-294.349904
-292.863289
-283.646272
-283.646272
-276.510516
-265.212237
-255.995220
-248.859465
-236.371893
-225.073614
-215.856597
-200.098470
-189.989484
-172.150096
-160.554493
-142.417782
-130.227533
-111.496176
-94.846080
-79.385277
-63.032505
-45.490440
-35.084130
-15.758126
2.917448
14.295497
30.633208
40.260788
58.057223
68.268293
79.354597
97.734522
107.362101
110.863039
125.450281
142.954972
155.208255
168.628518
177.672608
186.133208
198.969981
218.808630
224.935272
238.647280
240.397749
250.900563
264.029081
271.322702
272.197936
284.451220
289.410882
297.287992
305.456848
304.873358
308.957786
310.708255
307.207317
309.833021
311.000000
306.623827
309.249531
308.666041
303.414634
303.706379
300.497186
299.038462
294.078799
284.159475
280.658537
272.781426
264.029081
252.942777
244.773921
234.271107
223.476548
212.973734
199.845216
187.591932
171.545966
157.250469
144.413696
130.409944
111.154784
95.984053
81.105066
65.642589
51.638837
36.176360
19.838649
4.959662
-10.406310
-24.083174
-38.354685
-54.112811
-67.195029
-79.682600
-92.170172
-105.549713
-116.847992
-130.822180
-143.607075
-156.689293
-172.150096
-186.718929
-196.827916
-209.910134
-221.505736
-231.020076
-240.534417
-252.130019
-261.049713
-268.185468
-274.726577
-283.051625
-288.403442
-294.647228
-302.972275
-302.972275
-303.269598
-310.405354
-307.729446
-311.000000
-308.621415
-309.810707
-305.648184
-305.350860
-302.080306
-300.296367
-297.917782
-292.565966
-289.592734
-283.943595
-275.023901
-269.672084
-260.752390
-254.211281
-240.534417
-230.425430
-220.316444
-205.152964
-192.368069
-177.799235
-161.446463
-148.066922
-133.200765
-117.145315
-100.792543
-82.061185
-65.708413
-50.544933
-36.273423
-18.434034
-2.081262
10.794559
26.257036
40.552533
53.972795
65.642589
78.187617
91.899625
103.569418
116.114447
127.784240
140.037523
151.123827
164.252345
173.588180
185.841463
201.595685
213.557223
224.643527
232.520638
242.731707
251.484053
261.111632
268.696998
274.240150
281.242026
289.702627
297.287992
301.372420
303.998124
306.915572
306.040338
307.207317
306.915572
307.499062
307.499062
305.456848
306.332083
303.998124
300.497186
298.746717
294.662289
290.286116
283.867730
279.491557
269.280488
262.570356
252.651032
243.898687
235.146341
222.893058
210.348030
198.678236
183.799250
170.378987
154.624765
142.663227
128.075985
109.404315
93.941839
77.604128
64.183865
49.304878
34.425891
17.212946
1.750469
-12.487572
-27.948375
-41.030593
-55.896750
-68.384321
-81.466539
-95.440727
-107.333652
-120.415870
-132.606119
-147.472275
-160.257170
-170.663480
-184.637667
-198.611855
-212.883365
-223.884321
-233.398662
-241.723709
-252.427342
-260.157744
-269.969407
-275.321224
-283.646272
-288.700765
-297.917782
-302.674952
-305.053537
-306.837476
-307.729446
-308.621415
-308.918738
-308.621415
-308.918738
-307.729446
-306.540153
-305.053537
-300.296367
-298.809751
-295.836520
-288.998088
-284.835564
-277.105163
-270.564054
-260.157744
-253.319312
-241.723709
-232.804015
-219.424474
-206.936902
-192.368069
-177.799235
-161.743786
-149.553537
-134.687380
-117.739962
-99.305927
-83.845124
-67.195029
-51.436902
-35.976099
-19.028681
-3.567878
11.669794
24.798311
38.510319
51.638837
64.475610
77.312383
90.149156
102.110694
114.947467
125.742026
138.578799
149.956848
163.377111
172.421201
185.257974
201.303940
215.015947
223.768293
232.228893
242.148218
250.900563
260.819887
268.405253
275.698874
282.117261
290.286116
294.954034
301.664165
302.539400
305.165103
306.040338
307.207317
307.207317
306.332083
305.748593
306.915572
304.581614
302.247655
299.330206
298.454972
293.495310
288.243902
284.159475
277.157598
268.696998
261.403377
251.775797
244.482176
232.520638
222.309568
210.639775
197.803002
182.924015
168.336773
153.749531
141.496248
125.742026
108.237336
91.024390
77.604128
62.433396
47.554409
31.216698
14.587242
-0.891969
-13.974187
-30.326960
-41.625239
-56.788719
-69.276291
-82.953155
-96.332696
-107.036329
-121.605163
-134.390057
-146.877629
-159.662524
-170.068834
-183.448375
-200.395793
-214.369981
-224.181644
-232.506692
-244.696941
-251.238050
-260.455067
-268.780115
-276.510516
-284.240918
-290.782027
-295.836520
-302.377629
-304.756214
-305.945507
-309.216061
-309.810707
-309.216061
-308.026769
-307.729446
-307.134799
-304.756214
-303.269598
-301.485660
-298.809751
-292.863289
-288.403442
-283.646272
-277.105163
-269.969407
-258.671128
-251.832696
-242.318356
-230.722753
-219.721797
-206.936902
-192.368069
-178.393881
-161.149140
-149.256214
-134.687380
-118.334608
-99.008604
-82.953155
-67.492352
-51.436902
-35.678776
-20.515296
-4.162524
10.794559
25.381801
38.802064
51.638837
65.350844
78.187617
90.732645
102.985929
114.947467
127.492495
138.870544
151.415572
163.085366
171.837711
186.716698
202.179174
214.724203
224.935272
232.520638
241.856473
252.651032
261.403377
269.280488
277.157598
282.409006
291.161351
297.871482
301.372420
304.873358
306.332083
307.207317
308.082552
307.499062
307.499062
306.332083
306.623827
304.581614
302.831144
301.080675
298.454972
293.787054
289.702627
283.284240
277.157598
268.405253
259.944653
251.775797
241.856473
232.228893
220.559099
208.305816
194.885553
180.298311
167.753283
151.999062
140.037523
124.283302
106.778612
89.857411
75.853659
59.224203
44.928705
29.174484
11.961538
-1.783939
-16.947419
-30.624283
-44.003824
-58.572658
-72.844168
-85.926386
-98.413958
-110.009560
-123.389101
-135.876673
-149.256214
-161.446463
-173.042065
-187.313576
-202.774379
-215.856597
-226.560229
-233.695985
-243.804971
-253.913958
-261.941683
-271.456023
-277.699809
-283.348948
-291.971319
-299.107075
-303.566922
-306.540153
-308.324092
-308.621415
-308.918738
-310.405354
-308.918738
-307.729446
-305.350860
-305.053537
-303.864245
-299.999044
-297.620459
-293.457935
-288.403442
-283.348948
-276.510516
-269.077438
-258.968451
-250.643403
-240.831740
-231.020076
-218.235182
-204.558317
-193.260038
-176.312620
-162.338432
-147.472275
-133.498088
-117.442639
-99.305927
-83.250478
-66.897706
-50.842256
-36.868069
-18.136711
-4.162524
10.211069
26.257036
38.510319
52.222326
65.350844
77.604128
91.899625
103.277674
114.655722
127.492495
139.162289
151.999062
163.377111
173.588180
187.883677
202.762664
216.766417
225.227017
233.395872
243.023452
252.651032
262.570356
270.447467
275.407129
284.159475
290.869606
297.579737
302.247655
305.165103
305.748593
306.040338
306.623827
306.915572
306.040338
307.499062
306.623827
304.581614
302.831144
300.497186
296.412758
292.911820
287.368668
282.117261
276.282364
268.405253
259.069418
250.608818
240.397749
229.603189
219.975610
208.014071
194.010319
180.298311
164.835835
151.123827
138.578799
122.241088
103.569418
88.982176
71.769231
58.057223
42.303002
25.965291
11.961538
-4.162524
-19.028681
-32.408222
-46.977055
-60.653920
-74.033461
-87.710325
-99.305927
-114.172084
-123.686424
-138.552581
-151.634799
-163.825048
-174.826004
-188.502868
-204.855641
-217.045889
-228.344168
-234.885277
-245.291587
-255.103250
-264.022945
-270.564054
-278.294455
-285.727533
-292.863289
-297.917782
-303.269598
-305.053537
-307.432122
-307.134799
-308.918738
-309.216061
-307.729446
-309.513384
-308.026769
-305.350860
-303.269598
-300.296367
-297.323136
-294.052581
-289.295411
-283.051625
-276.510516
-268.780115
-258.373805
-250.643403
-239.939771
-230.128107
-218.829828
-205.747610
-190.881453
-176.609943
-161.149140
-145.985660
-133.795411
-115.658700
-98.413958
-80.574570
-66.303059
-49.355641
-35.678776
-17.839388
-2.675908
11.378049
25.965291
40.844278
52.805816
66.517824
79.062852
91.607880
105.028143
116.114447
127.200750
140.037523
152.582552
164.835835
175.338649
188.758912
204.513133
217.349906
225.518762
234.562852
243.606942
253.818011
263.445591
270.739212
276.865854
284.742964
291.453096
298.746717
302.247655
304.873358
306.623827
306.623827
307.207317
307.207317
307.499062
307.790807
305.165103
303.998124
300.788931
300.205441
297.579737
292.620075
287.952158
281.533771
275.698874
266.654784
258.485929
249.441839
239.522514
229.019700
219.683865
206.263602
191.092871
177.672608
163.085366
149.665103
136.536585
120.198874
102.402439
86.356473
71.769231
56.015009
41.136023
25.090056
9.335835
-5.351816
-20.812620
-34.786807
-47.869025
-62.140535
-77.006692
-88.602294
-101.684512
-113.577438
-125.767686
-139.147228
-152.229446
-164.419694
-173.934034
-188.800191
-206.044933
-217.045889
-225.965583
-235.777247
-244.994264
-255.995220
-264.617591
-269.969407
-278.889101
-284.240918
-291.971319
-299.107075
-303.566922
-305.945507
-308.918738
-308.621415
-307.432122
-309.810707
-307.729446
-308.324092
-308.026769
-305.648184
-302.377629
-300.891013
-297.323136
-293.160612
-286.916826
-281.862333
-274.726577
-266.698853
-258.373805
-249.454111
-239.345124
-229.533461
-217.343212
-204.558317
-189.097514
-175.123327
-160.257170
-145.093690
-132.308795
-113.874761
-95.738050
-79.087954
-64.519120
-49.355641
-33.894837
-16.352772
-1.486616
12.836773
26.548780
41.136023
53.389306
67.684803
79.646341
94.525328
105.611632
116.697936
128.951220
142.079737
153.749531
165.419325
175.338649
190.217636
205.680113
217.933396
226.977486
235.438086
245.649156
255.860225
263.737336
270.739212
278.032833
284.451220
293.203565
298.746717
303.998124
304.581614
306.332083
307.499062
306.915572
307.790807
306.915572
307.499062
306.040338
304.581614
301.664165
299.621951
296.412758
292.036585
285.618199
281.242026
274.531895
265.779550
258.194184
249.150094
238.355535
229.311445
217.933396
203.929644
190.509381
177.380863
162.793621
147.914634
135.661351
117.281426
100.943715
83.147280
69.727017
54.556285
39.969043
22.464353
7.293621
-8.027725
-21.407266
-36.570746
-49.058317
-63.924474
-77.898662
-89.791587
-102.279159
-114.766730
-127.254302
-140.039197
-151.932122
-164.419694
-174.826004
-190.881453
-206.342256
-217.937859
-228.938815
-237.858509
-247.967495
-255.995220
-265.212237
-271.753346
-277.997132
-286.619503
-294.944551
-298.512428
-303.269598
-306.242830
-308.324092
-308.324092
-307.432122
-309.513384
-307.729446
-309.216061
-306.242830
-304.756214
-302.080306
-299.404398
-295.539197
-291.079350
-286.916826
-280.970363
-275.321224
-265.806883
-257.481836
-247.670172
-238.453155
-228.344168
-216.748566
-203.071702
-187.313576
-174.528681
-159.067878
-145.093690
-131.714149
-113.577438
-96.630019
-79.682600
-63.924474
-49.355641
-33.002868
-17.244742
-2.378585
12.836773
26.548780
41.427767
53.972795
67.684803
80.521576
93.650094
104.736398
117.281426
128.659475
141.204503
153.749531
164.252345
175.630394
189.342402
205.096623
217.641651
225.810507
236.313321
246.524390
256.735460
264.612570
270.447467
278.616323
285.326454
293.787054
299.913696
303.414634
304.873358
305.165103
307.207317
307.207317
308.666041
306.915572
307.207317
305.165103
304.289869
301.955910
299.913696
296.996248
292.620075
287.076923
282.700750
274.823640
266.654784
257.027205
249.441839
239.522514
227.852720
216.766417
204.804878
189.925891
177.089118
161.043152
148.498124
134.202627
117.573171
99.776735
84.606004
69.143527
54.264540
37.926829
22.464353
6.710131
-7.433078
-22.299235
-36.273423
-49.355641
-64.519120
-77.304015
-90.683556
-103.171128
-114.766730
-127.551625
-140.039197
-153.716061
-165.608987
-176.312620
-191.476099
-207.531549
-218.532505
-228.938815
-237.858509
-248.859465
-256.292543
-266.401530
-272.050669
-279.483748
-287.214149
-294.944551
-299.999044
-304.458891
-306.540153
-308.026769
-309.513384
-307.432122
-308.026769
-308.026769
-306.837476
-307.134799
-303.269598
-302.377629
-298.512428
-295.836520
-292.268642
-286.916826
-279.781071
-274.429254
-266.401530
-256.589866
-247.670172
-237.263862
-225.965583
-215.261950
-199.801147
-187.016252
-173.042065
-157.581262
-143.607075
-128.443595
-112.982792
-93.656788
-78.493308
-62.140535
-47.274379
-32.110899
-14.568834
-0.297323
14.587242
29.174484
42.303002
57.181989
70.018762
82.563790
96.275797
107.653846
118.740150
130.701689
143.538462
156.083490
167.169794
178.839587
193.718574
206.847092
219.683865
229.019700
237.480300
248.274859
257.610694
265.487805
272.781426
280.366792
287.952158
294.370544
300.497186
303.122889
304.873358
306.040338
307.790807
307.499062
308.374296
306.623827
307.207317
305.748593
305.456848
302.247655
300.788931
296.412758
290.577861
286.785178
280.075047
273.656660
265.196060
257.318949
247.399625
238.647280
227.560976
215.015947
201.887430
188.175422
173.879925
159.876173
145.580675
131.868668
113.780488
98.026266
80.813321
65.642589
51.347092
37.051595
19.546904
4.084428
-9.217017
-24.380497
-38.949331
-51.734226
-65.113767
-80.871893
-93.062141
-105.549713
-117.145315
-130.524857
-142.120459
-156.689293
-167.690249
-177.799235
-193.854685
-208.423518
-220.316444
-229.830784
-239.047801
-248.562141
-257.779159
-265.509560
-272.347992
-281.565010
-286.024857
-294.647228
-299.999044
-304.458891
-307.134799
-306.837476
-308.324092
-308.324092
-309.810707
-307.134799
-307.432122
-305.945507
-303.269598
-303.566922
-300.296367
-296.728489
-292.565966
-285.727533
-280.375717
-272.645315
-264.914914
-255.697897
-247.372849
-237.858509
-226.560229
-211.099426
-199.801147
-186.124283
-171.852772
-155.202677
-143.904398
-127.254302
-109.414914
-92.170172
-75.222753
-61.843212
-45.193117
-30.326960
-14.271511
1.750469
15.754221
30.924953
44.636961
57.473734
70.602251
82.855535
97.151032
109.112570
120.490619
133.035647
145.580675
158.417448
167.461538
178.839587
193.718574
209.181051
220.559099
228.727955
237.772045
247.691370
257.902439
266.946529
273.948405
280.366792
287.952158
296.121013
301.080675
304.289869
306.915572
306.915572
308.374296
307.790807
308.666041
308.666041
307.499062
306.332083
303.122889
301.955910
299.621951
297.579737
293.203565
286.493433
280.075047
273.948405
264.904315
256.443715
247.983114
236.313321
226.685741
213.848968
201.595685
187.300188
173.004690
157.833959
145.288931
129.826454
112.905253
96.567542
79.646341
65.350844
50.180113
33.842402
17.796435
2.042214
-11.595602
-25.569790
-40.138623
-53.815488
-67.492352
-80.277247
-94.251434
-105.549713
-118.929254
-132.011472
-144.201721
-156.986616
-168.879541
-180.475143
-196.233270
-210.802103
-220.911090
-230.128107
-239.939771
-248.562141
-258.076482
-266.698853
-273.537285
-279.781071
-287.511472
-295.539197
-300.891013
-304.161568
-307.432122
-307.134799
-307.432122
-307.432122
-307.729446
-308.918738
-306.540153
-306.837476
-303.864245
-302.080306
-300.891013
-295.241874
-291.376673
-286.024857
-279.781071
-271.753346
-263.428298
-256.589866
-245.886233
-236.074570
-225.370937
-210.802103
-198.909178
-185.529637
-169.474187
-155.202677
-142.715105
-126.659656
-109.117591
-92.170172
-76.114723
-60.356597
-44.895793
-28.543021
-12.784895
1.750469
16.045966
29.174484
45.512195
57.181989
70.602251
84.022514
95.400563
108.529081
119.615385
132.160413
144.997186
157.833959
168.920263
178.839587
195.177298
209.764540
219.392120
229.019700
238.647280
248.274859
258.777674
266.946529
274.531895
280.950281
287.952158
296.121013
302.247655
303.998124
306.915572
306.915572
307.207317
307.499062
307.207317
307.790807
307.790807
304.873358
303.706379
300.205441
300.205441
295.245779
291.453096
286.785178
280.658537
273.364916
264.904315
255.568480
246.524390
236.896811
225.227017
212.973734
199.553471
186.133208
171.254221
156.958724
144.413696
128.075985
111.738274
94.817073
79.938086
64.183865
49.596623
33.258912
18.671670
2.042214
-11.298279
-25.867113
-40.435946
-54.707457
-68.978967
-80.574570
-93.954111
-106.144359
-118.334608
-132.606119
-144.499044
-157.283939
-168.284895
-181.367113
-195.638623
-211.099426
-220.911090
-229.830784
-238.750478
-249.751434
-258.076482
-266.698853
-273.834608
-280.375717
-287.214149
-295.539197
-302.674952
-304.756214
-305.053537
-305.053537
-307.432122
-308.918738
-307.729446
-308.621415
-306.242830
-305.053537
-304.161568
-301.485660
-299.404398
-293.755258
-289.890057
-285.132887
-277.402486
-271.158700
-262.239006
-253.913958
-245.291587
-234.885277
-225.370937
-210.504780
-197.422562
-184.340344
-168.582218
-154.013384
-140.633843
-124.875717
-108.225621
-90.683556
-74.628107
-58.869981
-44.598470
-28.245698
-11.595602
4.084428
18.088180
32.091932
45.803940
58.932458
72.936210
84.314259
97.151032
109.404315
121.074109
133.910882
146.455910
160.167917
169.212008
181.173546
196.636023
212.098499
222.017824
230.186679
240.106004
250.608818
259.944653
266.654784
275.990619
282.117261
289.410882
297.579737
301.955910
304.873358
304.873358
306.040338
307.790807
306.915572
308.666041
308.666041
306.040338
304.873358
303.706379
301.664165
299.621951
295.537523
289.994371
284.451220
278.032833
270.447467
262.278612
253.526266
244.773921
235.729831
224.643527
212.973734
198.094747
184.966229
170.087242
155.791745
142.954972
127.200750
109.404315
93.066604
77.020638
62.433396
46.970919
31.216698
14.587242
-0.891969
-14.866157
-28.840344
-42.219885
-56.491396
-70.762906
-83.845124
-96.332696
-108.820268
-121.010516
-133.795411
-147.472275
-158.770554
-170.366157
-182.259082
-198.314532
-211.694073
-222.100382
-231.912046
-240.237094
-250.643403
-259.860421
-267.888145
-275.023901
-282.159656
-290.484704
-296.431166
-301.485660
-303.269598
-305.350860
-307.729446
-305.945507
-308.918738
-309.216061
-309.216061
-307.432122
-305.053537
-303.269598
-302.377629
-298.512428
-294.647228
-289.295411
-283.646272
-278.889101
-270.266730
-261.644359
-253.319312
-244.102294
-234.885277
-222.992352
-208.423518
-196.827916
-182.556405
-167.392925
-151.932122
-139.741874
-123.389101
-104.360421
-88.899618
-73.736138
-58.275335
-42.517208
-26.461759
-10.108987
4.084428
19.546904
32.967167
46.679174
60.682927
73.811445
86.064728
98.609756
112.321764
123.116323
134.786116
147.914634
161.334897
170.378987
183.507505
197.511257
212.390244
222.309568
230.186679
242.439962
250.025328
260.236398
269.280488
275.698874
283.575985
289.119137
297.287992
301.955910
303.706379
306.332083
306.332083
308.082552
308.082552
308.666041
307.207317
306.332083
305.456848
302.539400
302.831144
298.454972
294.662289
289.702627
284.742964
277.741088
271.030957
261.986867
252.942777
243.023452
234.854597
222.309568
210.348030
195.760788
182.632270
169.212008
154.041276
140.621013
126.033771
106.195122
91.899625
74.394934
60.974672
45.512195
30.049719
13.712008
-2.675908
-16.055449
-30.624283
-45.490440
-58.572658
-71.357553
-85.034417
-97.224665
-110.306883
-122.199809
-135.282027
-148.364245
-161.149140
-170.960803
-183.745698
-198.909178
-213.180688
-224.181644
-230.722753
-241.426386
-251.832696
-260.455067
-267.590822
-274.131931
-283.943595
-289.592734
-295.539197
-299.999044
-305.053537
-306.837476
-307.134799
-308.324092
-308.621415
-307.432122
-308.026769
-306.540153
-305.945507
-305.350860
-300.891013
-298.809751
-293.755258
-288.700765
-282.754302
-277.402486
-269.672084
-261.644359
-250.940727
-243.804971
-232.506692
-221.208413
-209.612811
-196.233270
-180.475143
-166.500956
-151.932122
-138.255258
-122.497132
-104.063098
-87.115679
-70.168260
-56.194073
-40.138623
-24.975143
-8.325048
6.126642
19.838649
34.425891
47.554409
61.266417
74.394934
87.523452
99.484991
112.030019
124.575047
135.953096
149.373358
160.459662
170.962477
183.799250
199.553471
213.557223
224.060038
232.812383
241.856473
252.067542
261.695122
269.572233
276.574109
284.159475
291.161351
296.996248
301.664165
303.998124
306.040338
308.082552
306.332083
308.374296
307.790807
306.623827
307.207317
306.040338
303.414634
301.664165
297.287992
294.662289
289.994371
285.034709
278.324578
270.155722
261.695122
251.775797
242.731707
231.353659
221.726079
209.764540
195.760788
180.590056
166.586304
153.166041
138.870544
122.824578
105.611632
88.398687
73.519700
58.932458
43.469981
28.299250
10.794559
-2.378585
-17.542065
-32.110899
-45.787763
-59.167304
-74.033461
-85.926386
-99.603250
-111.793499
-123.091778
-138.255258
-150.445507
-162.041109
-171.852772
-185.529637
-200.098470
-215.261950
-225.073614
-232.506692
-242.318356
-253.021989
-260.455067
-269.374761
-275.915870
-283.943595
-290.782027
-295.836520
-302.080306
-303.269598
-307.432122
-308.621415
-309.513384
-308.918738
-307.134799
-307.134799
-306.837476
-305.648184
-302.674952
-301.485660
-297.620459
-294.349904
-289.592734
-283.646272
-276.510516
-269.374761
-260.752390
-251.832696
-242.021033
-230.425430
-220.019120
-207.234226
-194.152008
-178.096558
-163.527725
-151.040153
-135.282027
-118.631931
-102.576482
-84.737094
-69.573614
-53.518164
-38.949331
-22.299235
-7.135755
7.877111
21.880863
37.635084
49.013133
63.308630
76.437148
89.273921
102.694184
114.363977
126.325516
138.870544
152.290807
164.252345
173.296435
186.716698
202.179174
214.140713
225.227017
234.562852
242.731707
253.526266
262.278612
269.572233
276.574109
285.034709
292.620075
297.579737
302.539400
305.748593
307.790807
308.082552
308.082552
308.082552
307.207317
308.374296
307.790807
304.289869
303.414634
300.205441
298.454972
294.954034
289.994371
284.742964
278.032833
270.155722
262.570356
252.942777
242.731707
231.937148
220.850844
207.430582
196.052533
180.881801
165.419325
152.290807
139.162289
123.116323
105.319887
87.523452
73.811445
57.765478
43.178236
26.548780
10.794559
-4.162524
-18.731358
-32.110899
-45.490440
-60.059273
-73.736138
-86.818356
-98.413958
-111.198853
-122.794455
-136.173996
-148.364245
-161.149140
-170.663480
-183.745698
-200.990440
-214.667304
-223.884321
-234.290631
-243.507648
-253.616635
-261.347036
-267.888145
-276.213193
-282.754302
-290.782027
-297.917782
-301.188337
-306.540153
-305.053537
-307.432122
-306.540153
-308.324092
-308.918738
-307.134799
-306.837476
-302.674952
-303.566922
-302.377629
-298.512428
-292.565966
-286.619503
-282.754302
-274.726577
-266.996176
-258.671128
-249.156788
-240.831740
-230.722753
-218.532505
-206.639579
-192.962715
-178.988528
-164.419694
-149.256214
-134.687380
-118.334608
-101.387189
-83.845124
-68.681644
-52.626195
-39.246654
-21.407266
-6.838432
7.293621
22.172608
37.051595
50.180113
63.016886
77.020638
90.149156
101.235460
112.321764
124.866792
138.578799
149.956848
162.210131
172.712946
187.300188
201.012195
215.599437
224.935272
234.562852
244.773921
253.526266
263.153846
269.863977
278.616323
284.451220
292.328330
298.454972
303.706379
304.581614
305.748593
307.499062
307.499062
308.957786
307.790807
308.374296
307.499062
304.873358
304.289869
302.247655
299.330206
294.370544
289.410882
284.159475
276.865854
270.155722
260.236398
251.192308
242.439962
231.937148
221.142589
208.597561
193.718574
180.006567
166.294559
151.707317
138.578799
121.074109
103.569418
86.939962
72.060976
57.765478
43.178236
24.798311
11.378049
-4.459847
-18.434034
-32.408222
-46.977055
-61.545889
-74.628107
-86.521033
-99.305927
-112.388145
-123.686424
-136.471319
-148.364245
-160.851816
-171.555449
-185.529637
-202.477055
-214.667304
-225.370937
-232.506692
-243.507648
-253.319312
-261.049713
-268.185468
-276.510516
-282.754302
-289.890057
-297.323136
-302.377629
-304.161568
-306.540153
-305.945507
-309.216061
-308.324092
-307.432122
-306.540153
-305.648184
-304.756214
-302.674952
-299.701721
-295.539197
-291.971319
-286.024857
-280.673040
-274.726577
-266.698853
-258.076482
-249.156788
-239.642447
-229.236138
-217.937859
-204.855641
-189.989484
-175.123327
-162.041109
-146.282983
-133.498088
-115.956023
-97.521989
-81.466539
-67.195029
-50.842256
-35.976099
-19.326004
-3.865201
10.794559
25.381801
38.218574
52.514071
67.101313
79.062852
92.191370
103.277674
115.530957
128.075985
141.204503
152.874296
164.544090
174.755159
188.758912
204.513133
216.474672
226.393996
236.021576
245.649156
255.276735
263.445591
271.906191
279.199812
287.660413
293.787054
299.038462
302.831144
306.040338
305.456848
308.666041
308.374296
309.249531
308.666041
307.207317
307.207317
305.165103
303.706379
300.788931
297.871482
293.787054
287.660413
282.117261
274.823640
266.946529
259.069418
250.608818
241.564728
229.894934
219.100375
206.847092
191.676360
177.089118
164.252345
149.373358
135.661351
119.031895
100.360225
85.189493
69.727017
55.139775
39.969043
24.506567
8.168856
-6.541109
-21.407266
-35.976099
-48.760994
-63.924474
-76.114723
-90.088910
-101.981836
-114.172084
-126.956979
-139.741874
-152.824092
-164.122371
-174.528681
-187.610899
-205.152964
-217.640535
-225.668260
-235.182600
-244.696941
-255.400574
-263.130975
-270.266730
-276.807839
-286.024857
-292.565966
-297.025813
-301.485660
-303.864245
-305.648184
-308.621415
-308.324092
-308.026769
-306.242830
-305.945507
-306.837476
-304.161568
-302.377629
-298.809751
-295.241874
-291.079350
-284.538241
-280.970363
-273.239962
-266.401530
-256.887189
-247.075526
-239.047801
-227.749522
-217.343212
-203.963671
-188.800191
-175.123327
-161.149140
-146.580306
-131.416826
-115.064054
-98.116635
-82.061185
-66.600382
-50.247610
-35.084130
-18.434034
-3.270554
11.378049
25.673546
39.093809
53.389306
67.101313
79.646341
93.358349
103.861163
117.281426
128.075985
140.621013
153.749531
164.252345
175.922139
189.634146
205.971857
216.766417
227.852720
235.729831
245.940901
255.860225
265.779550
271.906191
279.783302
286.201689
294.078799
300.205441
303.414634
305.748593
306.040338
308.082552
308.374296
309.249531
306.332083
307.207317
306.623827
304.873358
303.122889
299.621951
296.996248
292.911820
287.660413
282.117261
275.990619
265.779550
257.902439
249.733583
239.522514
229.311445
217.641651
204.804878
188.758912
175.922139
161.626642
147.331144
133.910882
117.573171
99.484991
83.439024
68.851782
53.681051
38.802064
22.464353
8.460600
-8.325048
-22.299235
-36.868069
-50.842256
-63.924474
-79.087954
-90.088910
-103.171128
-115.658700
-129.038241
-141.823136
-154.310707
-165.014340
-175.717973
-192.368069
-205.450287
-218.235182
-226.857553
-236.371893
-244.994264
-256.887189
-264.022945
-269.969407
-279.186424
-286.024857
-294.052581
-299.404398
-301.485660
-304.458891
-306.242830
-308.918738
-307.729446
-308.324092
-306.242830
-306.837476
-306.540153
-303.566922
-303.566922
-299.107075
-296.431166
-291.079350
-285.430210
-278.889101
-272.645315
-264.617591
-256.292543
-247.075526
-237.561185
-228.344168
-216.451243
-203.963671
-187.313576
-174.231358
-159.365201
-145.985660
-131.119503
-113.874761
-95.440727
-79.385277
-63.924474
-49.355641
-33.894837
-16.947419
-1.783939
11.961538
25.965291
39.969043
53.972795
67.393058
79.938086
93.358349
105.319887
116.406191
128.367730
141.787992
153.749531
165.711069
175.922139
190.217636
206.263602
217.933396
227.269231
236.021576
245.940901
257.027205
265.487805
271.906191
280.075047
286.493433
294.662289
299.621951
302.831144
305.165103
306.623827
307.790807
308.666041
308.666041
307.499062
307.499062
306.915572
303.998124
304.873358
300.205441
297.871482
292.328330
286.201689
281.825516
273.948405
266.654784
257.610694
248.274859
240.106004
228.144465
217.058161
204.221388
189.634146
175.922139
160.459662
147.039400
133.910882
116.406191
98.609756
82.563790
67.393058
52.514071
36.468105
21.589118
5.543152
-9.217017
-22.893881
-35.678776
-51.139579
-65.708413
-77.304015
-92.170172
-103.765774
-115.658700
-126.659656
-141.228489
-154.013384
-164.419694
-175.420650
-190.286807
-206.044933
-217.045889
-226.857553
-235.777247
-245.291587
-255.400574
-264.320268
-270.266730
-278.294455
-285.727533
-292.565966
-298.512428
-302.674952
-302.972275
-306.242830
-307.134799
-308.918738
-306.540153
-306.540153
-305.350860
-305.053537
-305.350860
-300.593690
-297.917782
-294.349904
-289.890057
-283.943595
-278.294455
-271.753346
-263.428298
-254.508604
-246.183556
-236.074570
-225.965583
-213.775335
-199.801147
-186.421606
-171.258126
-157.878585
-143.309751
-129.038241
-112.090822
-93.359465
-78.790631
-63.627151
-47.571702
-32.110899
-15.460803
-1.189293
13.712008
28.590994
41.427767
55.431520
69.435272
83.439024
95.400563
107.362101
119.907129
130.993433
143.830206
155.208255
165.711069
176.505629
192.843340
208.014071
219.683865
229.311445
237.480300
248.274859
258.777674
265.487805
272.489681
281.533771
287.076923
296.121013
299.913696
304.289869
305.165103
308.374296
307.790807
309.249531
308.957786
307.790807
308.082552
306.040338
305.165103
302.831144
299.913696
295.829268
292.328330
285.618199
279.783302
273.656660
264.612570
256.735460
247.983114
237.772045
227.852720
215.307692
202.179174
187.591932
173.879925
159.876173
145.872420
131.576923
113.196998
95.984053
80.229831
64.767355
50.763602
35.592871
18.963415
2.625704
-10.406310
-25.272467
-39.841300
-52.626195
-66.600382
-81.466539
-94.251434
-105.847036
-118.037285
-132.011472
-143.309751
-156.391969
-167.392925
-178.393881
-195.043977
-208.720841
-219.721797
-230.128107
-236.966539
-247.967495
-257.481836
-265.509560
-271.158700
-279.483748
-286.619503
-293.457935
-299.999044
-302.674952
-305.053537
-307.729446
-305.945507
-308.324092
-308.324092
-306.242830
-306.837476
-305.053537
-304.458891
-302.377629
-299.404398
-294.052581
-290.782027
-283.943595
-278.889101
-270.861377
-262.536329
-254.508604
-244.696941
-236.371893
-224.478967
-212.586042
-198.611855
-184.637667
-171.555449
-153.716061
-141.823136
-126.956979
-109.414914
-92.467495
-76.412046
-61.248566
-43.706501
-30.029637
-13.379541
2.042214
15.462477
30.341463
43.761726
58.057223
71.477486
84.314259
96.859287
108.820826
121.949343
133.327392
145.872420
157.542214
168.628518
181.173546
194.885553
210.639775
222.309568
231.061914
240.106004
248.274859
259.652908
267.821764
274.240150
281.242026
287.952158
296.412758
301.664165
305.456848
307.499062
308.082552
308.666041
307.499062
309.541276
308.374296
307.499062
305.748593
304.581614
303.122889
300.205441
298.163227
292.036585
286.785178
281.242026
273.073171
264.320826
257.027205
247.691370
238.063790
226.102251
213.848968
201.303940
187.300188
173.004690
156.958724
144.997186
130.993433
112.321764
96.567542
79.938086
66.517824
51.055347
33.842402
18.379925
2.625704
-12.487572
-25.569790
-40.138623
-54.112811
-66.897706
-80.871893
-93.062141
-105.252390
-116.847992
-130.822180
-142.715105
-156.391969
-167.392925
-179.583174
-193.260038
-209.018164
-219.127151
-228.938815
-236.669216
-247.372849
-255.697897
-264.617591
-272.942639
-277.997132
-286.916826
-294.052581
-300.891013
-304.458891
-304.161568
-306.242830
-306.837476
-306.540153
-307.432122
-306.242830
-307.134799
-304.756214
-302.674952
-300.296367
-298.215105
-294.944551
-290.187380
-283.943595
-277.997132
-270.861377
-262.833652
-254.211281
-245.291587
-234.885277
-223.586998
-211.396750
-198.314532
-183.745698
-168.879541
-154.310707
-142.715105
-125.767686
-108.820268
-91.278203
-75.520076
-61.545889
-45.193117
-28.840344
-13.379541
2.042214
16.629456
29.757974
44.636961
58.640713
71.769231
84.897749
97.151032
107.945591
120.198874
134.202627
146.164165
157.542214
168.628518
180.590056
195.760788
210.348030
220.267355
229.311445
239.814259
249.441839
259.944653
267.238274
274.823640
281.825516
289.410882
296.704503
301.080675
304.581614
306.332083
308.082552
309.541276
307.790807
307.790807
308.666041
308.374296
305.748593
304.289869
301.955910
300.788931
296.412758
292.328330
285.909944
280.366792
273.656660
264.320826
254.984991
246.524390
234.854597
224.643527
212.681989
200.136961
185.549719
171.837711
156.083490
144.121951
128.075985
111.154784
94.233583
79.354597
62.433396
49.013133
32.383677
16.629456
0.291745
-13.676864
-27.353728
-41.625239
-56.194073
-69.573614
-82.953155
-95.738050
-106.739006
-119.821224
-132.011472
-145.391013
-157.581262
-168.284895
-179.880497
-196.530593
-210.802103
-220.911090
-229.830784
-238.750478
-250.048757
-258.671128
-266.698853
-273.239962
-280.375717
-288.106119
-294.647228
-299.701721
-303.566922
-305.350860
-307.432122
-307.134799
-307.134799
-305.945507
-308.621415
-306.837476
-304.458891
-302.674952
-301.188337
-298.512428
-294.349904
-289.295411
-284.538241
-277.997132
-269.374761
-261.347036
-253.913958
-243.804971
-234.885277
-222.100382
-210.207457
-196.530593
-183.151052
-168.582218
-153.716061
-141.228489
-124.875717
-107.036329
-88.899618
-73.736138
-58.572658
-44.003824
-27.651052
-10.406310
3.500938
18.379925
31.800188
45.220450
59.807692
72.644465
86.356473
98.318011
108.820826
121.949343
134.202627
145.872420
159.000938
169.795497
181.465291
196.344278
211.223265
221.726079
230.478424
239.814259
250.608818
259.944653
267.530019
275.698874
282.117261
289.994371
296.996248
302.539400
305.456848
306.623827
308.374296
308.082552
308.374296
306.623827
309.249531
307.499062
305.165103
304.289869
301.372420
299.621951
295.537523
290.577861
286.201689
280.658537
273.364916
263.737336
254.109756
245.649156
235.146341
224.060038
211.515009
197.511257
184.966229
169.212008
155.500000
141.204503
126.325516
109.112570
91.316135
77.895872
62.141651
47.846154
30.633208
14.878987
-0.594646
-14.866157
-27.948375
-43.111855
-56.788719
-71.357553
-84.142447
-97.224665
-108.225621
-121.307839
-133.498088
-147.472275
-159.662524
-170.663480
-182.556405
-198.017208
-212.288719
