222.766854
222.184457
-13.776626
229.755618
259.457865
235.288390
269.649813
279.550562
289.160112
292.654494
296.731273
299.060861
301.972846
303.137640
305.467228
307.505618
302.846442
307.505618
308.379213
307.505618
305.176030
303.137640
296.148876
293.528090
287.995318
281.588951
277.803371
270.523408
264.699438
254.798689
241.985955
234.414794
221.310861
211.118914
200.344569
181.999064
164.527154
153.461610
142.104869
122.594569
110.946629
88.815543
76.294007
60.278090
43.970974
27.955056
9.609551
-1.172479
-15.828464
-33.122526
-43.088596
-61.848256
-71.521206
-86.763431
-94.677663
-111.385485
-119.885957
-133.955702
-146.266730
-158.577757
-165.026390
-175.871819
-196.390198
-212.804901
-218.667295
-232.443921
-244.461828
-250.324222
-260.290292
-265.859566
-272.308200
-275.532516
-289.309142
-292.240339
-298.395853
-301.033930
-303.965127
-307.482564
-311.000000
-306.310085
-306.896324
-308.361923
-303.965127
-301.327050
-301.327050
-299.861451
-295.464656
-293.999057
-288.136664
-280.222432
-278.756833
-269.963242
-263.807729
-254.721018
-243.582469
-236.840716
-223.064090
-211.339303
-198.148916
-184.665410
-170.595664
-155.646560
-141.869934
-128.679548
-109.626767
-92.918944
-77.090481
-61.555137
-46.312912
-29.311970
-12.897267
-0.000000
15.724719
30.575843
44.262172
59.113296
71.634831
83.573970
96.386704
106.869850
120.264981
132.495318
143.852060
156.082397
167.439139
178.504682
193.938202
208.498127
220.728464
229.464419
239.365169
248.392322
257.128277
262.661049
273.435393
281.297753
286.539326
295.566479
299.643258
303.720037
305.467228
306.923221
305.467228
305.467228
306.049625
308.670412
308.379213
304.884831
304.884831
302.555243
300.516854
292.072097
288.577715
282.753745
278.968165
270.523408
262.661049
253.342697
245.480337
234.123596
224.222846
210.245318
197.723783
183.455056
169.477528
154.917603
142.396067
126.671348
108.325843
90.271536
74.838015
59.695693
43.970974
27.081461
12.812734
-3.224317
-16.414703
-31.070688
-44.847314
-58.623940
-71.521206
-84.125353
-96.143261
-107.574929
-121.058435
-132.490104
-145.387370
-158.577757
-166.785108
-181.147974
-194.631480
-209.580584
-222.184731
-228.340245
-240.065033
-248.272385
-257.359095
-264.980207
-272.308200
-279.343073
-287.257304
-293.412818
-299.861451
-303.378888
-303.965127
-305.137606
-305.430726
-305.430726
-307.482564
-306.310085
-304.258247
-301.620170
-301.327050
-300.447691
-295.757776
-292.826579
-285.791706
-282.860509
-276.998115
-269.963242
-262.635250
-251.789821
-243.875589
-234.202639
-223.064090
-209.580584
-197.269557
-184.079171
-167.664467
-155.060320
-142.163054
-125.455231
-107.574929
-90.573987
-74.745523
-57.744581
-43.674835
-27.846371
-11.724788
2.911985
16.598315
32.031835
44.262172
58.822097
71.634831
82.700375
95.804307
107.743446
120.264981
131.330524
144.434457
157.538390
167.439139
179.669476
196.558989
210.827715
221.310861
230.629213
238.491573
249.557116
259.457865
266.155431
273.435393
280.715356
290.033708
295.566479
301.681648
303.720037
305.758427
307.796816
308.379213
307.505618
307.505618
307.214419
306.049625
305.176030
303.720037
301.390449
298.187266
295.566479
288.868914
285.083333
277.803371
269.941011
262.369850
254.798689
243.441948
232.958801
222.766854
211.118914
196.850187
183.455056
168.895131
154.917603
141.522472
126.088951
107.452247
90.271536
74.255618
59.113296
44.553371
26.790262
10.191948
-4.396795
-17.880302
-32.536287
-45.140434
-59.210179
-72.400566
-85.590952
-97.315740
-108.747408
-121.351555
-133.369463
-145.387370
-159.163996
-168.836946
-180.268615
-197.269557
-210.166824
-222.184731
-231.271442
-240.065033
-249.737983
-256.186616
-264.980207
-272.015080
-279.343073
-288.429783
-293.119698
-299.275212
-302.499529
-304.258247
-306.603205
-306.310085
-306.016965
-306.310085
-306.310085
-306.016965
-303.085768
-301.327050
-299.861451
-295.171536
-291.654100
-287.550424
-281.394910
-277.291235
-267.618285
-259.997172
-251.496701
-242.409991
-231.857681
-220.426013
-207.821866
-194.924599
-183.492931
-167.078228
-153.594722
-139.818096
-124.282752
-104.643732
-87.935910
-72.107446
-55.399623
-41.036758
-25.208294
-8.793591
4.659176
18.927903
33.196629
47.465356
60.860487
72.508427
86.485955
98.425094
109.199438
120.847378
133.368914
146.181648
158.703184
168.603933
183.746255
196.850187
211.701311
222.766854
230.629213
242.277154
251.013109
260.040262
267.611423
275.473783
283.044944
291.489700
297.022472
302.846442
304.302434
306.632022
307.796816
307.796816
308.961610
308.961610
307.505618
306.049625
305.758427
304.011236
300.516854
297.313670
293.528090
288.577715
284.209738
277.803371
269.649813
261.787453
252.469101
243.150749
233.541199
222.766854
208.498127
194.229401
181.125468
165.109551
151.423221
139.484082
122.303371
105.122659
87.650749
71.343633
55.910112
40.767790
25.043071
8.153558
-4.983035
-19.345900
-34.588124
-47.778511
-62.434496
-74.159284
-87.056550
-99.660697
-111.971725
-123.403393
-135.714420
-149.491046
-159.457116
-170.888784
-184.079171
-198.735156
-214.270500
-223.357210
-232.443921
-241.237512
-250.324222
-259.117813
-264.687088
-274.360038
-282.567389
-287.257304
-293.999057
-301.620170
-303.672008
-304.258247
-306.016965
-306.603205
-306.896324
-305.430726
-305.723845
-305.137606
-303.378888
-301.620170
-297.223374
-295.464656
-291.067861
-286.377945
-281.688030
-275.239397
-267.618285
-259.117813
-248.565504
-241.530631
-230.098963
-219.839774
-205.770028
-193.165881
-178.803016
-163.853911
-150.956645
-136.300660
-120.765316
-102.885014
-86.177191
-70.348728
-55.692743
-38.984920
-23.156456
-8.793591
6.406367
20.966292
35.526217
49.503745
62.316479
77.750000
88.233146
101.045880
112.402622
124.341760
137.736891
148.511236
161.615169
171.224719
184.619850
200.926966
214.030899
224.222846
233.541199
242.568352
253.342697
260.622659
269.358614
276.929775
283.627341
291.489700
297.896067
301.390449
305.467228
307.796816
308.088015
308.961610
308.670412
308.088015
308.379213
306.923221
305.467228
302.555243
300.225655
296.731273
292.072097
288.868914
283.918539
277.512172
269.941011
260.913858
251.886704
243.441948
231.794007
220.437266
209.080524
195.685393
181.707865
165.400749
152.296816
138.610487
121.720974
103.084270
86.777154
71.634831
56.492509
39.602996
23.878277
8.444757
-5.862394
-19.932139
-34.001885
-47.485391
-61.848256
-75.331762
-87.349670
-98.781338
-110.506126
-122.230914
-135.714420
-148.904807
-160.922714
-171.181904
-183.786051
-199.614515
-213.098021
-222.184731
-233.030160
-242.116871
-250.324222
-258.824694
-264.687088
-272.308200
-279.929312
-288.429783
-294.292177
-300.154571
-301.620170
-302.206409
-306.016965
-305.723845
-306.603205
-306.016965
-306.310085
-303.085768
-302.499529
-299.861451
-299.275212
-294.878417
-290.481621
-286.084826
-279.343073
-274.066918
-266.738926
-258.531574
-248.858624
-238.892554
-229.219604
-216.322337
-205.183789
-192.286522
-177.630537
-165.026390
-150.956645
-137.180019
-119.592837
-101.712535
-84.711593
-69.762488
-53.640905
-38.398680
-21.690858
-6.155514
8.153558
23.004682
37.564607
50.668539
64.354869
76.585206
89.106742
101.628277
112.111423
124.632959
136.572097
148.511236
161.032772
170.933521
185.784644
200.344569
215.195693
225.096442
234.414794
244.024345
253.633895
261.205056
268.193820
276.638577
283.918539
291.489700
297.604869
302.264045
304.011236
306.340824
307.214419
307.505618
308.088015
308.088015
307.214419
307.214419
304.302434
303.428839
301.099251
297.604869
292.945693
287.995318
282.753745
276.056180
268.485019
261.496255
251.595506
241.112360
231.502809
218.981273
208.206929
193.355805
180.543071
165.691948
151.714419
138.028090
120.556180
101.045880
84.156367
69.887640
54.162921
39.020599
21.257491
6.988764
-7.327992
-22.570217
-35.760603
-49.537229
-63.606975
-77.090481
-89.987747
-100.833176
-113.730443
-126.041470
-137.473139
-150.370405
-162.974552
-172.647502
-184.958530
-202.545712
-215.149859
-223.357210
-234.202639
-242.996230
-250.910462
-260.290292
-268.497644
-273.773798
-282.860509
-289.895382
-296.050895
-301.033930
-303.085768
-305.137606
-305.430726
-306.310085
-306.016965
-305.430726
-304.551367
-302.499529
-302.206409
-300.740811
-298.102733
-294.585297
-291.360980
-284.619227
-279.929312
-273.187559
-265.273327
-257.065975
-248.272385
-238.306315
-228.340245
-217.201697
-203.425071
-190.527804
-176.458058
-162.095193
-147.732328
-133.955702
-117.540999
-98.781338
-81.487276
-67.417531
-51.589067
-36.639962
-19.639020
-4.103676
10.191948
24.169476
37.855805
51.833333
65.519663
78.914794
90.562734
102.501873
115.897004
128.127341
139.484082
152.005618
163.362360
173.845506
188.114232
203.838951
216.651685
226.261236
235.579588
244.897940
253.342697
261.787453
271.105805
277.803371
284.792135
291.198502
299.352060
302.555243
305.758427
307.214419
307.796816
308.379213
306.923221
308.670412
307.214419
307.505618
305.467228
303.428839
299.643258
297.896067
293.528090
288.577715
282.171348
275.764981
267.902622
259.457865
250.430712
241.985955
231.502809
219.563670
207.042135
193.355805
179.378277
163.944757
149.093633
136.572097
119.973783
100.754682
84.447566
68.722846
54.162921
38.147004
22.422285
6.115169
-7.327992
-20.518379
-36.053723
-50.709708
-63.313855
-77.090481
-89.401508
-99.660697
-111.385485
-125.455231
-137.766258
-150.370405
-161.802074
-171.768143
-185.837889
-202.545712
-213.977380
-225.995287
-232.737041
-242.703110
-251.496701
-258.238454
-266.152686
-273.773798
-281.688030
-288.722903
-296.344015
-299.861451
-303.085768
-303.672008
-303.965127
-304.844486
-304.844486
-304.551367
-305.723845
-303.672008
-302.206409
-299.568332
-297.516494
-294.878417
-289.309142
-282.567389
-278.170594
-272.601320
-264.100848
-255.893497
-247.979265
-238.013195
-226.288407
-215.736098
-202.838831
-189.355325
-174.406221
-160.922714
-147.146089
-131.317625
-113.730443
-97.608860
-81.487276
-65.951932
-49.537229
-33.708765
-17.880302
-2.344958
12.230337
26.207865
39.894195
53.289326
67.266854
78.914794
91.727528
104.249064
115.314607
128.127341
140.648876
152.296816
164.527154
174.427903
188.987828
205.294944
216.942884
225.970037
236.453184
244.897940
255.089888
264.699438
271.688202
279.550562
287.412921
294.401685
299.352060
302.264045
305.758427
307.796816
308.670412
309.835206
308.670412
307.505618
308.379213
307.505618
304.884831
304.593633
299.934457
297.604869
293.236891
287.995318
283.044944
277.220974
267.902622
258.584270
250.139513
239.656367
228.590824
218.398876
203.256554
190.735019
176.175094
160.741573
147.928839
132.495318
115.897004
98.425094
82.117978
66.975655
51.833333
34.652622
18.927903
3.494382
-10.552309
-26.087653
-39.571159
-52.761546
-65.365693
-78.556079
-93.212064
-103.764373
-114.023563
-128.093308
-140.404336
-152.715363
-165.026390
-174.992460
-189.355325
-204.890669
-216.322337
-226.581527
-235.081998
-243.289350
-253.548539
-259.704053
-266.738926
-275.825636
-282.567389
-289.895382
-296.637135
-300.447691
-303.965127
-304.551367
-305.723845
-305.430726
-305.723845
-303.672008
-303.672008
-302.792648
-299.568332
-299.568332
-296.930254
-292.826579
-288.429783
-282.860509
-277.291235
-271.428841
-263.221489
-254.427898
-244.754948
-237.133836
-225.995287
-212.804901
-200.786993
-186.424128
-172.940622
-158.870877
-144.508011
-131.024505
-113.144204
-94.677663
-77.383600
-63.900094
-47.485391
-32.536287
-16.707823
-1.172479
12.812734
27.081461
41.058989
54.162921
69.305243
81.244382
94.348315
105.122659
117.935393
129.874532
143.852060
155.500000
165.109551
178.213483
191.026217
208.498127
219.272472
228.008427
238.200375
246.353933
256.254682
264.117041
272.270599
278.968165
287.704120
295.857678
299.934457
304.884831
306.340824
307.796816
308.670412
309.252809
308.670412
308.088015
307.505618
307.214419
305.176030
302.846442
300.516854
297.313670
292.363296
287.412921
281.006554
274.600187
266.155431
257.128277
248.974719
239.073970
228.590824
214.904494
204.712547
188.987828
175.592697
160.450375
147.346442
132.786517
114.441011
96.969101
80.370787
65.228464
49.503745
33.196629
17.763109
2.620787
-12.017908
-25.794533
-40.743638
-54.520264
-68.003770
-79.728558
-92.332705
-104.350613
-116.368520
-127.507069
-140.111216
-153.887842
-163.853911
-175.285580
-190.234684
-204.597549
-216.615457
-226.581527
-236.254477
-244.461828
-254.134779
-262.342130
-267.911404
-276.998115
-284.912347
-290.774741
-296.637135
-300.740811
-304.258247
-303.378888
-303.965127
-304.844486
-305.430726
-305.137606
-305.137606
-302.499529
-301.620170
-298.688973
-296.050895
-292.826579
-288.722903
-282.567389
-276.998115
-268.497644
-262.049010
-253.548539
-244.461828
-235.375118
-224.822809
-212.804901
-199.028275
-186.424128
-172.061263
-157.405278
-144.801131
-129.852026
-112.264844
-93.798303
-77.676720
-62.727615
-47.485391
-30.191329
-15.535344
-0.586239
13.686330
28.537453
43.679775
57.074906
70.178839
82.117978
94.057116
106.287453
117.352996
128.418539
143.269663
154.626404
166.274345
177.631086
192.482210
208.789326
220.146067
228.008427
239.073970
247.809925
257.710674
264.408240
273.435393
280.132959
288.868914
294.984082
300.808052
305.467228
306.340824
307.796816
308.670412
307.796816
307.796816
308.379213
307.796816
306.923221
304.884831
301.390449
299.934457
296.731273
292.072097
287.121723
280.715356
274.600187
267.611423
257.419476
248.974719
238.782772
226.261236
216.069288
202.382959
189.570225
174.136704
158.703184
146.181648
131.330524
112.985019
96.969101
80.079588
64.354869
49.503745
33.779026
17.763109
1.747191
-12.897267
-26.087653
-40.743638
-54.227144
-68.296890
-80.021678
-92.039585
-104.936852
-116.368520
-128.679548
-140.404336
-154.474081
-162.974552
-176.164939
-190.527804
-205.183789
-217.494816
-226.288407
-235.668238
-242.996230
-255.893497
-260.583412
-268.497644
-277.877474
-283.739868
-291.067861
-296.050895
-300.447691
-303.378888
-304.551367
-304.844486
-305.137606
-305.137606
-304.844486
-303.672008
-302.499529
-300.740811
-299.861451
-296.344015
-292.240339
-287.550424
-282.860509
-276.411876
-269.670123
-260.876532
-252.082941
-245.048068
-233.616400
-223.064090
-211.046183
-197.269557
-183.786051
-167.957587
-155.060320
-141.576814
-126.334590
-108.161169
-90.573987
-75.331762
-60.089538
-43.967955
-27.846371
-11.724788
2.038390
16.889513
31.740637
45.426966
59.113296
71.926030
83.865169
96.677903
108.908240
119.973783
132.204120
144.434457
157.247191
168.312734
179.378277
195.685393
210.245318
221.893258
231.211610
240.238764
249.265918
259.166667
267.029026
274.308989
282.462547
288.577715
297.313670
301.972846
305.467228
309.544007
309.252809
309.544007
309.252809
308.961610
308.961610
308.670412
306.923221
305.467228
303.428839
300.225655
295.275281
292.654494
286.830524
280.715356
274.600187
264.117041
256.545880
247.227528
237.326779
225.387640
214.030899
200.635768
187.240637
171.224719
156.955993
143.852060
129.874532
110.655431
93.183521
76.876404
62.316479
46.882959
29.993446
13.977528
-1.465598
-14.362865
-30.191329
-42.502356
-56.278982
-70.055608
-82.073516
-95.557022
-107.574929
-119.299717
-131.024505
-143.628652
-155.646560
-166.491989
-178.216777
-194.631480
-207.528746
-219.253534
-228.047125
-238.306315
-247.099906
-255.893497
-262.635250
-270.842601
-276.998115
-285.791706
-290.774741
-297.516494
-302.792648
-303.378888
-304.844486
-305.430726
-304.844486
-305.430726
-304.258247
-304.551367
-301.913289
-301.913289
-299.568332
-296.050895
-291.654100
-287.257304
-282.567389
-274.946277
-267.911404
-260.876532
-252.082941
-242.409991
-231.857681
-221.012253
-209.287465
-195.510839
-183.786051
-167.371348
-153.301602
-139.818096
-124.575872
-106.695570
-89.401508
-73.573044
-57.158341
-43.381715
-25.794533
-10.259189
4.367978
18.927903
33.779026
47.465356
60.860487
73.090824
85.612360
99.589888
110.364232
122.012172
134.533708
146.472846
159.285581
169.768727
181.125468
196.850187
211.410112
222.766854
232.085206
241.694757
251.304307
259.457865
268.776217
275.473783
282.753745
289.742509
297.604869
301.390449
305.758427
307.796816
308.670412
309.544007
309.252809
309.835206
310.417603
307.214419
306.340824
305.176030
302.846442
299.643258
296.148876
291.198502
285.956929
280.424157
273.144195
263.825843
255.089888
246.936330
235.579588
224.222846
213.448502
200.053371
186.367041
170.933521
155.500000
143.852060
128.418539
110.073034
92.018727
76.294007
61.442884
45.718165
29.119850
13.977528
-1.172479
-15.242224
-29.605090
-43.674835
-57.158341
-69.762488
-83.245994
-95.557022
-107.574929
-118.713478
-131.903864
-145.680490
-157.405278
-168.250707
-177.630537
-195.510839
-209.580584
-220.426013
-229.512724
-238.306315
-248.858624
-256.772856
-263.221489
-272.601320
-277.877474
-286.084826
-292.826579
-297.223374
-302.206409
-303.672008
-304.551367
-304.844486
-305.723845
-304.258247
-305.137606
-303.965127
-301.327050
-301.327050
-298.102733
-296.344015
-291.947220
-286.964185
-280.808671
-274.360038
-268.497644
-259.410933
-251.789821
-243.289350
-230.978322
-221.012253
-207.235627
-195.217719
-181.147974
-167.078228
-153.594722
-140.111216
-124.868992
-104.936852
-87.935910
-72.693685
-56.278982
-42.502356
-24.035815
-9.379830
5.532772
18.927903
34.070225
48.630150
60.278090
73.382022
85.903558
97.842697
110.073034
120.264981
134.242509
147.055243
157.829588
170.351124
181.125468
197.432584
212.574906
222.766854
232.085206
241.985955
252.177903
260.331461
267.320225
275.473783
282.171348
289.451311
298.478464
302.555243
306.923221
308.379213
307.796816
309.252809
309.252809
308.961610
309.835206
307.796816
307.214419
303.428839
302.555243
300.225655
295.566479
291.198502
285.665730
278.968165
272.270599
262.369850
254.507491
245.480337
236.161985
225.387640
211.118914
198.597378
184.037453
170.351124
156.082397
143.269663
125.506554
108.908240
91.436330
76.294007
60.569288
44.844569
27.955056
11.939139
-2.638077
-17.294062
-32.829406
-43.381715
-58.917059
-71.228087
-83.245994
-95.850141
-106.988690
-119.885957
-131.610745
-145.387370
-155.939680
-167.371348
-180.268615
-194.045240
-208.701225
-220.426013
-228.047125
-238.013195
-247.979265
-256.772856
-264.100848
-271.428841
-279.636192
-286.671065
-292.826579
-298.102733
-302.792648
-304.844486
-305.430726
-304.551367
-304.551367
-305.137606
-304.551367
-303.378888
-302.792648
-298.982092
-297.223374
-294.878417
-291.067861
-284.912347
-278.756833
-275.239397
-266.152686
-257.945335
-248.858624
-240.065033
-230.392083
-219.253534
-206.356268
-194.338360
-179.682375
-165.612630
-151.249764
-137.473139
-121.351555
-103.764373
-87.349670
-70.934967
-55.985862
-40.450518
-24.328935
-7.914232
6.406367
20.675094
35.235019
48.630150
62.025281
75.129213
88.233146
100.172285
110.655431
124.050562
135.116105
148.511236
161.323970
170.351124
184.328652
198.888577
214.904494
224.222846
232.667603
243.733146
252.760300
261.496255
269.649813
277.512172
284.209738
293.236891
297.896067
302.264045
307.214419
307.214419
309.544007
309.252809
309.835206
308.961610
309.252809
309.252809
306.340824
305.176030
301.972846
299.060861
296.148876
290.324906
283.918539
278.385768
271.979401
262.661049
253.342697
244.897940
233.541199
222.184457
210.245318
195.685393
183.163858
166.274345
152.588015
139.484082
124.050562
105.705056
87.650749
73.090824
56.783708
40.767790
25.334270
9.900749
-4.983035
-18.759661
-33.415646
-47.192271
-59.210179
-74.159284
-86.470311
-98.195099
-109.919887
-121.937795
-135.421301
-145.387370
-160.629595
-169.423186
-183.492931
-198.442036
-212.511781
-222.477851
-231.271442
-241.823751
-250.324222
-257.945335
-266.152686
-272.601320
-280.808671
-287.843544
-295.171536
-299.861451
-301.620170
-303.965127
-305.723845
-304.844486
-305.430726
-304.844486
-305.137606
-303.378888
-301.620170
-299.568332
-296.050895
-294.878417
-289.895382
-284.912347
-280.515551
-273.480679
-265.566447
-257.359095
-248.858624
-239.771913
-229.219604
-216.908577
-204.597549
-192.579642
-177.044298
-164.147031
-149.784166
-136.886899
-119.299717
-102.298775
-84.125353
-68.296890
-53.640905
-38.398680
-21.983977
-7.034873
8.153558
22.131086
36.691011
50.086142
63.481273
76.585206
89.689139
101.337079
113.276217
124.924157
136.863296
149.676030
161.906367
171.515918
186.075843
200.053371
216.360487
225.970037
233.832397
244.606742
252.469101
262.661049
270.232210
278.094569
285.956929
293.236891
299.934457
303.720037
305.467228
307.214419
308.379213
311.000000
308.961610
309.544007
308.961610
307.214419
305.176030
304.884831
302.846442
298.478464
294.401685
290.033708
283.627341
277.220974
269.649813
260.913858
253.342697
244.606742
233.541199
220.146067
210.536517
193.938202
180.834270
165.691948
151.714419
138.319288
121.720974
102.501873
86.485955
71.926030
56.201311
40.476592
23.587079
9.027154
-7.327992
-20.518379
-34.881244
-47.778511
-61.555137
-75.038643
-87.935910
-100.540057
-110.799246
-123.110273
-137.180019
-147.146089
-160.629595
-170.888784
-184.079171
-199.614515
-212.511781
-223.650330
-231.857681
-241.823751
-251.203582
-258.238454
-266.152686
-274.360038
-280.808671
-287.550424
-295.464656
-300.447691
-301.327050
-304.258247
-304.844486
-304.844486
-305.723845
-304.551367
-304.844486
-303.672008
-302.499529
-300.740811
-298.395853
-293.999057
-290.188501
-285.498586
-279.049953
-272.015080
-265.273327
-255.893497
-247.686145
-240.358153
-227.167766
-217.201697
-205.183789
-191.114043
-176.458058
-163.267672
-147.732328
-133.662582
-116.954760
-99.953817
-82.952875
-66.538172
-51.002828
-35.760603
-20.518379
-4.396795
10.191948
23.878277
38.729401
51.833333
65.519663
77.750000
90.562734
102.210674
113.858614
125.506554
138.319288
152.005618
162.779963
173.554307
185.784644
203.256554
216.069288
226.843633
236.161985
244.897940
255.381086
262.661049
269.358614
278.676966
284.792135
292.654494
298.769663
304.884831
306.632022
307.214419
308.379213
309.252809
309.252809
308.961610
310.126404
307.505618
306.340824
304.884831
301.681648
298.478464
294.110487
288.577715
283.044944
276.929775
269.067416
261.205056
251.886704
241.985955
232.085206
220.728464
207.915730
193.647004
179.960674
164.818352
151.132022
135.989700
120.556180
102.501873
85.612360
70.178839
53.580524
37.855805
22.422285
6.406367
-7.914232
-21.104618
-35.467484
-48.657870
-63.313855
-76.211122
-89.108388
-100.833176
-111.971725
-124.868992
-137.473139
-150.077286
-162.681433
-172.647502
-186.131008
-201.959472
-213.391140
-224.236569
-231.271442
-242.116871
-252.669180
-260.290292
-267.032045
-275.825636
-282.567389
-289.309142
-295.464656
-301.033930
-302.792648
-304.258247
-303.672008
-304.551367
-303.965127
-306.016965
-303.965127
-303.085768
-301.327050
-299.861451
-298.102733
-294.292177
-290.481621
-285.791706
-279.636192
-272.894439
-265.273327
-256.186616
-247.393025
-237.720075
-227.167766
-214.270500
-203.131951
-189.062205
-174.699340
-161.215834
-146.559849
-131.024505
-115.489161
-97.901979
-81.780396
-67.417531
-51.589067
-36.053723
-18.759661
-2.638077
10.483146
24.460674
39.020599
52.706929
66.684457
78.332397
91.727528
103.666667
114.441011
126.962547
139.775281
151.714419
163.944757
173.554307
188.696629
203.547753
216.360487
227.426030
236.161985
245.189139
255.089888
264.408240
271.397004
280.132959
285.956929
293.236891
299.352060
305.176030
306.340824
308.670412
309.835206
309.544007
309.252809
309.544007
308.379213
307.796816
304.884831
304.302434
301.390449
298.187266
294.692884
289.160112
283.336142
276.929775
269.649813
259.749064
251.304307
241.403558
231.794007
219.563670
207.042135
193.647004
179.087079
164.818352
149.093633
135.698502
119.100187
100.463483
85.612360
69.887640
54.454120
37.855805
23.004682
5.823970
-7.621112
-22.277097
-37.226202
-49.830349
-63.020735
-75.624882
-89.401508
-100.246937
-112.264844
-123.989632
-136.300660
-150.663525
-159.750236
-172.647502
-186.131008
-201.959472
-213.684260
-223.943450
-233.616400
-242.703110
-252.669180
-258.824694
-266.445806
-274.360038
-281.394910
-290.188501
-295.171536
-298.102733
-301.913289
-303.965127
-305.430726
-305.137606
-304.258247
-303.965127
-303.965127
-303.378888
-301.327050
-300.447691
-296.637135
-293.119698
-289.602262
-284.326107
-278.756833
-271.135721
-263.221489
-255.014138
-245.341188
-237.720075
-224.822809
-212.511781
-201.666352
-187.596607
-174.406221
-158.577757
-144.801131
-130.731385
-114.316682
-95.850141
-79.435438
-63.020735
-48.364750
-33.415646
-15.535344
-0.879359
12.812734
26.790262
41.058989
55.036517
68.431648
81.244382
94.639513
105.413858
117.352996
130.165730
141.522472
154.335206
166.274345
177.048689
191.026217
207.624532
218.981273
228.299625
236.744382
247.227528
257.128277
265.281835
272.270599
279.550562
289.451311
294.692884
301.099251
304.302434
307.214419
308.088015
309.252809
310.417603
308.379213
308.670412
309.544007
308.088015
306.340824
302.846442
302.264045
299.060861
293.236891
288.868914
283.336142
275.764981
267.320225
258.293071
250.430712
240.238764
229.464419
217.816479
202.965356
191.026217
175.010300
160.450375
148.220037
134.533708
117.061798
99.007491
82.409176
68.140449
52.706929
36.982210
19.801498
3.785581
-10.845429
-25.208294
-38.984920
-51.002828
-65.365693
-79.435438
-91.746466
-104.350613
-114.902922
-127.213949
-140.697455
-152.422243
-162.974552
-173.526861
-188.769086
-203.131951
-216.029218
-224.529689
-235.081998
-243.875589
-253.255419
-261.169651
-268.790763
-276.118756
-284.619227
-290.188501
-296.344015
-300.447691
-302.206409
-304.258247
-304.844486
-304.551367
-305.137606
-305.137606
-304.258247
-303.085768
-300.740811
-299.568332
-296.930254
-293.119698
-288.429783
-284.326107
-277.584354
-270.549482
-262.342130
-254.134779
-244.754948
-235.081998
-224.529689
-212.804901
-199.321395
-185.837889
-171.181904
-157.405278
-144.508011
-129.265787
-112.557964
-93.505184
-78.262959
-61.262017
-47.778511
-30.777568
-14.362865
-0.000000
13.686330
28.828652
42.514981
56.492509
69.014045
81.535581
94.639513
106.578652
118.226592
129.292135
142.978464
156.082397
166.274345
177.631086
191.899813
207.624532
219.563670
229.173221
238.200375
247.518727
256.837079
264.990637
273.144195
280.132959
289.160112
294.692884
301.390449
304.884831
306.923221
308.670412
309.835206
309.252809
309.252809
309.835206
308.379213
307.796816
305.758427
303.137640
300.808052
297.313670
293.236891
288.286517
282.171348
274.308989
266.737828
258.001873
249.557116
238.200375
227.426030
216.360487
203.256554
189.279026
173.845506
160.741573
147.055243
132.495318
114.149813
98.133895
81.244382
64.937266
50.377341
34.361423
18.054307
2.620787
-10.552309
-25.501414
-40.157399
-54.227144
-66.538172
-80.314797
-92.625825
-102.591894
-115.196041
-128.679548
-140.697455
-153.008483
-165.319510
-175.871819
-189.062205
-205.770028
-216.029218
-226.581527
-235.081998
-244.754948
-252.962300
-261.755891
-268.497644
-277.291235
-284.912347
-290.774741
-295.757776
-300.154571
-301.327050
-303.672008
-304.844486
-303.965127
-306.016965
-304.551367
-304.258247
-303.965127
-301.327050
-299.568332
-296.050895
-292.240339
-289.016023
-281.981150
-276.118756
-269.670123
-262.049010
-253.841659
-244.168709
-235.081998
-223.943450
-211.339303
-199.028275
-184.958530
-170.888784
-156.232799
-142.163054
-127.800189
-110.506126
-92.332705
-77.969840
-60.968897
-46.606032
-29.605090
-13.776626
0.873596
16.015918
30.284644
43.970974
57.948502
69.887640
82.991573
95.513109
108.325843
119.100187
131.621723
143.852060
155.791199
166.274345
178.795880
193.355805
208.498127
220.437266
229.755618
239.656367
248.974719
258.875468
265.573034
273.144195
281.588951
288.868914
297.604869
302.264045
306.049625
306.923221
307.796816
308.088015
309.252809
308.670412
310.126404
308.961610
307.796816
305.176030
303.720037
301.099251
297.022472
293.236891
286.830524
280.424157
274.017790
264.408240
257.419476
249.265918
237.035581
227.134831
215.486891
202.091760
188.114232
172.680712
158.994382
146.181648
131.912921
112.693820
95.804307
78.623596
64.063670
50.377341
32.905431
15.724719
1.164794
-13.483506
-26.673893
-41.329877
-55.985862
-68.590009
-82.073516
-93.212064
-104.350613
-117.540999
-129.558907
-141.869934
-154.180961
-165.905749
-175.578699
-190.234684
-206.942507
-217.494816
-227.754006
-237.426956
-246.220547
-255.600377
-262.928369
-269.377003
-278.463713
-284.619227
-292.533459
-296.344015
-301.913289
-303.085768
-305.430726
-305.723845
-304.844486
-306.310085
-305.137606
-304.258247
-301.913289
-300.447691
-299.275212
-295.171536
-292.533459
-286.964185
-282.274270
-276.411876
-268.790763
-260.290292
-251.789821
-243.582469
-233.323280
-223.064090
-209.580584
-196.976437
-182.906692
-169.716305
-153.887842
-140.990575
-125.748351
-107.574929
-91.453346
-74.452403
-60.382658
-45.140434
-27.260132
-11.724788
2.911985
16.889513
31.158240
44.844569
57.948502
71.052434
82.991573
96.095506
108.034644
119.100187
131.330524
144.434457
157.829588
167.147940
180.251873
194.811798
209.080524
221.602060
230.338015
239.947566
249.557116
257.710674
266.155431
274.017790
281.006554
289.742509
296.148876
300.808052
304.884831
307.505618
308.670412
309.835206
309.544007
310.126404
308.670412
308.379213
307.214419
305.176030
302.846442
300.516854
297.896067
291.780899
286.539326
281.588951
273.144195
264.408240
256.254682
247.227528
237.326779
225.970037
213.448502
201.218165
186.658240
172.971910
156.955993
144.434457
128.127341
110.073034
94.639513
78.623596
62.607678
46.009363
31.449438
15.433521
-0.000000
-14.069746
-28.725730
-43.381715
-57.451461
-70.641847
-84.125353
-95.557022
-108.161169
-118.713478
-131.903864
-143.335533
-156.525919
-166.785108
-177.923657
-193.752121
-207.821866
-218.374175
-228.340245
-238.599434
-246.806786
-256.186616
-263.807729
-272.308200
-276.998115
-287.550424
-291.067861
-297.809614
-301.033930
-303.965127
-304.258247
-306.016965
-304.844486
-305.430726
-304.844486
-304.551367
-302.792648
-301.620170
-299.275212
-296.637135
-291.947220
-288.136664
-282.274270
-275.825636
-269.083883
-261.169651
-251.789821
-243.582469
-232.737041
-221.305372
-207.821866
-196.390198
-182.613572
-168.250707
-154.474081
-138.645617
-125.455231
-106.109331
-89.694628
-75.038643
-57.158341
-43.674835
-25.794533
-9.966070
5.241573
17.763109
32.905431
47.465356
60.278090
72.508427
86.194757
99.298689
110.364232
122.594569
135.698502
147.637640
159.285581
170.351124
181.125468
197.432584
210.536517
223.640449
231.502809
241.694757
251.013109
259.749064
267.320225
274.600187
283.627341
290.616105
298.187266
301.972846
305.467228
307.505618
309.544007
309.835206
310.126404
308.670412
308.379213
309.252809
306.632022
304.884831
303.137640
300.225655
296.731273
291.489700
286.248127
280.132959
272.852996
264.117041
255.963483
247.227528
236.161985
223.931648
213.448502
198.888577
185.493446
169.477528
155.208801
142.687266
127.253745
109.199438
91.727528
76.876404
60.860487
44.553371
29.119850
13.395131
-2.051838
-15.535344
-29.898209
-43.967955
-56.865221
-71.521206
-84.418473
-97.022620
-108.747408
-120.765316
-132.490104
-144.214892
-158.284637
-167.371348
-179.682375
-194.924599
-208.701225
-219.839774
-228.340245
-238.599434
-246.513666
-256.479736
-264.980207
-271.428841
-277.584354
-286.084826
-292.240339
-297.809614
-301.033930
-304.844486
-304.844486
-303.672008
-305.430726
-304.258247
-304.551367
-304.844486
-302.499529
-301.327050
-297.809614
-295.464656
-292.240339
-286.084826
-280.808671
-274.066918
-266.738926
-259.117813
-251.203582
-241.823751
-231.271442
-219.839774
-207.528746
-194.045240
-182.320452
-166.198869
-151.542884
-137.766258
-122.817154
-104.936852
-86.470311
-71.521206
-56.278982
-39.278040
-24.035815
-8.793591
7.862360
20.383895
36.691011
49.503745
62.898876
75.420412
88.233146
100.463483
112.111423
123.759363
135.407303
148.802434
161.032772
170.351124
184.037453
197.141386
214.030899
223.058052
232.958801
243.733146
250.430712
260.913858
269.358614
275.764981
284.209738
291.780899
297.313670
301.972846
305.758427
308.670412
308.670412
309.252809
309.544007
309.544007
309.835206
309.252809
307.214419
305.758427
303.137640
299.934457
297.022472
291.489700
286.248127
281.297753
272.270599
263.534644
255.381086
246.062734
235.579588
223.640449
211.410112
197.432584
184.328652
168.895131
155.208801
141.522472
126.380150
108.325843
91.436330
75.711610
60.278090
45.135768
28.246255
12.812734
-3.517436
-17.000943
-30.484449
-44.554194
-57.158341
-70.641847
-84.125353
-95.850141
-107.574929
-118.713478
-132.783223
-144.801131
-155.646560
-167.664467
-178.509896
-195.217719
-209.287465
-220.426013
-228.633365
-237.720075
-247.686145
-255.893497
-263.514609
-270.256362
-279.343073
-287.550424
-291.360980
-298.102733
-301.327050
-302.206409
-305.430726
-304.551367
-304.551367
-304.844486
-304.844486
-304.258247
-301.913289
-299.861451
-297.809614
-295.171536
-290.188501
-285.498586
-279.636192
-273.773798
-265.273327
-257.359095
-249.444863
-241.237512
-229.512724
-218.374175
-206.356268
-191.407163
-180.561734
-164.440151
-149.784166
-137.180019
-121.058435
-103.178134
-86.177191
-70.055608
-54.520264
-40.157399
-22.863336
-7.914232
6.406367
19.801498
35.817416
48.630150
63.772472
75.420412
88.815543
99.881086
110.073034
123.759363
135.116105
147.928839
161.323970
170.642322
183.746255
198.014981
213.739700
224.805243
233.250000
