-298.454972
-311.000000
-57.473734
-177.380863
-310.708255
-296.996248
-307.790807
-308.374296
-306.040338
-304.873358
-301.955910
-300.205441
-296.121013
-291.161351
-286.493433
-272.489681
-274.823640
-266.654784
-257.318949
-251.775797
-240.106004
-231.353659
-217.641651
-205.388368
-192.551595
-179.131332
-164.835835
-153.749531
-137.995310
-122.241088
-103.861163
-88.982176
-72.060976
-59.807692
-43.761726
-26.548780
-13.420263
2.628169
19.857277
30.077934
44.970892
58.695775
73.004695
86.145540
98.702347
110.383099
121.771831
133.160563
149.805634
161.778404
170.246948
188.352113
202.076995
212.881690
228.650704
232.446948
247.923944
253.764319
265.153052
268.365258
278.293897
281.798122
295.230986
298.443192
301.947418
304.575587
306.619718
307.495775
307.787793
308.079812
306.035681
306.911737
305.451643
303.991549
301.363380
299.027230
295.815023
290.850704
283.550235
274.497653
270.701408
263.400939
252.596244
243.835681
233.323005
220.182160
209.961502
195.944601
180.759624
165.574648
150.681690
134.328638
120.311737
102.498592
84.393427
65.120188
51.103286
36.794366
20.441315
2.628169
-11.669794
-24.214822
-39.385553
-52.514071
-63.892120
-77.312383
-88.690432
-101.527205
-112.905253
-124.283302
-134.786116
-147.914634
-159.000938
-171.254221
-180.881801
-194.885553
-208.889306
-220.267355
-229.894934
-234.854597
-245.649156
-252.942777
-259.069418
-266.946529
-273.364916
-281.242026
-288.535647
-294.954034
-299.621951
-301.372420
-302.539400
-305.165103
-305.165103
-304.581614
-303.414634
-303.706379
-301.664165
-300.788931
-299.330206
-296.996248
-293.787054
-290.577861
-285.034709
-278.324578
-273.073171
-263.737336
-257.027205
-247.983114
-239.230769
-227.269231
-215.599437
-203.929644
-189.342402
-176.505629
-161.626642
-149.373358
-135.369606
-118.448405
-101.527205
-85.772983
-70.602251
-56.015009
-37.926829
-24.506567
-10.502814
5.256338
19.857277
33.582160
47.307042
61.615962
74.464789
86.729577
98.994366
112.427230
123.523944
136.080751
150.681690
162.362441
173.167136
187.768075
203.537089
215.509859
226.606573
234.491080
245.295775
253.472300
262.232864
269.825352
276.833803
285.886385
293.186854
299.027230
302.531455
304.283568
306.911737
306.911737
306.619718
308.079812
307.495775
307.787793
305.743662
305.743662
302.239437
300.487324
296.691080
293.186854
286.178404
281.506103
273.913615
264.861033
256.976526
245.295775
236.535211
226.022535
212.297653
198.864789
185.139906
169.662911
154.185915
140.169014
123.815962
107.754930
89.357746
73.296714
56.359624
41.174648
26.865728
11.388732
-4.959662
-18.671670
-33.550657
-46.387430
-59.515947
-72.352720
-84.897749
-95.984053
-108.237336
-119.615385
-131.868668
-142.954972
-156.083490
-168.045028
-177.380863
-191.092871
-206.555347
-217.349906
-227.269231
-235.146341
-243.606942
-252.067542
-259.361163
-266.363039
-273.948405
-280.950281
-287.952158
-294.078799
-298.454972
-300.788931
-302.247655
-303.122889
-305.165103
-305.165103
-303.706379
-304.581614
-303.998124
-300.205441
-300.497186
-297.287992
-293.203565
-288.535647
-283.575985
-278.032833
-271.030957
-262.570356
-256.443715
-247.983114
-237.188555
-226.977486
-215.599437
-204.513133
-191.092871
-175.630394
-161.918386
-149.373358
-135.077861
-116.406191
-99.484991
-84.606004
-70.018762
-54.848030
-39.677298
-25.381801
-9.919325
5.256338
19.565258
34.750235
47.015023
60.447887
74.464789
86.729577
98.994366
111.259155
123.523944
136.956808
151.557746
162.070423
173.167136
188.352113
203.537089
216.969953
227.190610
235.367136
245.003756
254.056338
262.816901
270.701408
279.461972
287.054460
293.478873
299.903286
303.699531
306.327700
308.371831
307.787793
307.787793
307.787793
308.079812
308.371831
306.327700
303.407512
303.407512
300.779343
296.691080
292.602817
287.638498
280.630047
274.789671
267.197183
257.268545
249.384038
237.995305
226.314554
213.465728
200.032864
186.600000
170.538967
155.061972
141.629108
127.612207
107.462911
91.109859
74.464789
59.863850
44.970892
28.033803
12.848826
-4.376173
-17.504690
-31.216698
-44.928705
-58.348968
-72.060976
-85.189493
-95.692308
-109.404315
-120.490619
-131.576923
-143.246717
-156.958724
-168.045028
-177.672608
-192.551595
-205.971857
-217.349906
-225.810507
-234.562852
-244.190432
-252.359287
-260.236398
-265.779550
-274.240150
-281.242026
-288.535647
-295.537523
-299.621951
-302.539400
-302.539400
-303.706379
-304.581614
-304.581614
-303.706379
-304.581614
-302.831144
-300.497186
-299.038462
-296.704503
-292.911820
-288.535647
-283.575985
-277.741088
-270.739212
-262.570356
-254.401501
-245.649156
-236.605066
-226.102251
-216.474672
-202.179174
-190.801126
-175.630394
-160.167917
-147.039400
-134.494371
-116.697936
-99.484991
-82.272045
-69.435272
-54.556285
-39.093809
-22.172608
-7.001876
6.716432
21.317371
35.626291
48.183099
61.323944
75.048826
87.897653
100.454460
113.011268
124.692019
136.956808
151.265728
162.946479
174.919249
189.228169
205.289202
216.969953
227.482629
236.243192
244.711737
256.100469
263.108920
270.117371
277.709859
286.470423
292.894836
299.903286
303.699531
305.451643
306.327700
308.663850
308.663850
308.371831
308.663850
307.203756
306.911737
304.283568
303.699531
300.195305
296.983099
292.310798
286.762441
281.214085
273.913615
266.029108
257.852582
247.923944
238.287324
226.606573
213.173709
201.200939
186.600000
171.123005
156.522066
141.337089
128.488263
110.675117
92.569953
75.924883
61.323944
44.386854
29.785915
13.724883
-1.750469
-16.337711
-30.633208
-44.636961
-57.765478
-70.893996
-83.730769
-96.567542
-107.945591
-118.740150
-131.868668
-142.371482
-157.250469
-168.045028
-177.380863
-191.092871
-205.680113
-216.766417
-226.393996
-234.854597
-243.606942
-252.067542
-260.236398
-266.363039
-273.948405
-282.117261
-288.243902
-294.954034
-297.871482
-302.539400
-302.539400
-303.122889
-304.581614
-304.581614
-303.998124
-303.706379
-302.247655
-300.497186
-299.330206
-296.704503
-292.911820
-287.952158
-283.284240
-278.324578
-270.739212
-262.862101
-254.109756
-245.357411
-234.854597
-225.810507
-212.973734
-201.595685
-188.175422
-174.171670
-158.417448
-147.039400
-131.576923
-114.655722
-96.859287
-81.688555
-67.393058
-51.055347
-36.759850
-19.546904
-5.543152
8.176526
22.193427
36.794366
50.811268
64.244131
77.676995
89.649765
101.038498
112.427230
126.444131
140.169014
152.433803
163.530516
175.211268
190.688263
206.457277
217.846009
227.482629
237.119249
247.339906
255.224413
263.400939
270.701408
278.585915
285.302347
294.646948
300.195305
303.991549
304.283568
307.495775
308.371831
308.663850
307.787793
309.247887
306.619718
306.327700
304.283568
302.823474
300.779343
296.983099
292.602817
287.346479
280.922066
273.913615
266.613146
257.560563
248.507981
237.995305
226.022535
214.633803
200.324883
186.307981
171.999061
155.938028
141.921127
128.196244
110.967136
92.277934
75.924883
61.031925
47.015023
30.661972
14.016901
-0.875235
-15.170732
-29.757974
-42.886492
-57.181989
-68.851782
-82.855535
-94.817073
-105.028143
-117.281426
-130.118199
-142.371482
-155.500000
-165.127580
-177.380863
-191.676360
-205.096623
-217.349906
-225.518762
-233.687617
-243.023452
-252.359287
-260.528143
-266.654784
-274.240150
-281.825516
-289.410882
-296.412758
-298.746717
-301.664165
-304.289869
-303.414634
-305.165103
-303.122889
-303.414634
-303.706379
-301.080675
-299.913696
-299.330206
-296.704503
-292.328330
-287.660413
-282.992495
-276.574109
-269.572233
-261.986867
-253.818011
-245.065666
-236.021576
-225.227017
-213.848968
-199.845216
-187.591932
-174.463415
-159.292683
-145.872420
-132.160413
-112.905253
-97.151032
-79.646341
-66.226079
-51.055347
-35.884615
-19.255159
-4.959662
9.052582
23.945540
37.378404
50.519249
63.660094
77.384977
89.941784
100.454460
113.303286
125.860094
138.708920
151.557746
163.238498
176.087324
190.688263
205.873239
217.553991
227.482629
237.703286
246.463850
255.516432
262.816901
270.701408
279.461972
286.762441
293.770892
300.487324
303.407512
305.451643
307.787793
308.079812
308.079812
309.247887
308.371831
308.663850
307.203756
305.451643
302.823474
300.487324
297.275117
292.310798
287.346479
280.922066
274.789671
266.029108
257.852582
249.676056
238.287324
227.482629
214.925822
202.076995
186.892019
173.459155
157.398122
144.257277
129.656338
110.967136
93.738028
77.092958
62.784038
47.307042
32.998122
16.353052
-0.875235
-14.295497
-29.174484
-41.136023
-54.556285
-67.393058
-79.938086
-93.650094
-104.444653
-116.989681
-129.826454
-142.079737
-154.041276
-165.711069
-176.505629
-190.509381
-207.430582
-216.182927
-225.810507
-234.562852
-243.898687
-252.651032
-258.485929
-266.654784
-274.240150
-282.409006
-289.119137
-294.954034
-298.746717
-301.080675
-303.122889
-304.289869
-303.122889
-304.289869
-303.122889
-303.414634
-302.539400
-299.621951
-299.038462
-296.121013
-290.577861
-287.076923
-281.242026
-275.698874
-269.280488
-261.403377
-252.359287
-244.773921
-233.104128
-223.184803
-211.515009
-198.386492
-185.549719
-170.670732
-156.958724
-144.121951
-129.826454
-111.446529
-95.692308
-78.479362
-63.892120
-48.721388
-32.967167
-18.379925
-2.333959
11.388732
25.989671
40.006573
53.147418
66.288263
79.429108
92.569953
105.418779
116.515493
129.072300
142.213146
154.185915
166.158685
177.547418
193.024413
208.209390
220.182160
229.526761
237.995305
248.507981
256.976526
263.984977
273.329577
279.753991
286.762441
295.815023
300.195305
304.575587
306.035681
307.495775
309.831925
308.663850
308.955869
309.247887
307.495775
307.495775
304.867606
302.823474
300.195305
297.275117
292.894836
286.178404
280.338028
274.789671
265.445070
257.268545
248.215962
238.579343
227.482629
214.925822
202.953052
187.184038
174.043192
157.690141
143.381221
129.948357
110.675117
93.738028
78.553052
62.200000
46.138967
30.953991
14.892958
0.292019
-14.003752
-28.590994
-42.011257
-55.431520
-67.393058
-80.813321
-94.233583
-103.569418
-116.989681
-130.118199
-142.663227
-155.208255
-164.835835
-177.089118
-191.384615
-205.388368
-217.058161
-224.935272
-235.146341
-243.315197
-253.234522
-260.819887
-267.238274
-275.407129
-282.992495
-289.410882
-294.078799
-298.746717
-302.539400
-301.955910
-303.998124
-303.706379
-303.706379
-303.122889
-302.831144
-300.788931
-300.205441
-297.287992
-294.954034
-290.869606
-286.493433
-282.117261
-275.698874
-268.696998
-259.944653
-252.067542
-242.439962
-233.979362
-224.060038
-210.931520
-199.553471
-184.090994
-171.545966
-156.958724
-143.538462
-129.242964
-111.446529
-95.108818
-79.646341
-63.600375
-49.596623
-33.550657
-17.504690
-1.458724
11.680751
25.989671
40.590610
53.147418
66.580282
78.845070
91.985915
104.542723
115.639437
127.320188
141.629108
154.477934
164.990610
178.131455
192.148357
207.625352
220.766197
228.942723
237.703286
248.800000
256.976526
265.153052
273.329577
279.461972
288.806573
295.523005
299.903286
305.159624
306.911737
306.911737
308.079812
309.539906
308.371831
309.247887
308.371831
306.911737
305.159624
303.407512
299.903286
297.567136
293.186854
287.054460
280.922066
274.497653
265.737089
258.144601
248.507981
238.287324
226.606573
215.801878
202.076995
188.644131
172.875117
158.274178
144.257277
129.948357
111.551174
93.738028
78.261033
62.492019
48.183099
31.830047
16.061033
1.460094
-14.295497
-27.424015
-41.719512
-55.431520
-67.684803
-80.813321
-92.483114
-104.444653
-116.406191
-128.367730
-140.912758
-153.749531
-165.127580
-176.505629
-191.384615
-204.513133
-216.766417
-224.935272
-234.562852
-242.731707
-251.775797
-259.652908
-267.821764
-275.990619
-283.284240
-289.119137
-295.245779
-298.746717
-299.330206
-301.664165
-303.122889
-303.122889
-301.080675
-302.539400
-302.539400
-299.913696
-299.330206
-296.412758
-294.078799
-291.744841
-286.493433
-280.950281
-275.698874
-267.821764
-259.944653
-250.025328
-243.606942
-232.520638
-223.184803
-210.348030
-196.927767
-184.090994
-169.212008
-154.624765
-141.787992
-127.200750
-108.529081
-91.899625
-75.853659
-61.558161
-46.387430
-29.757974
-15.754221
-0.291745
14.600939
27.741784
43.218779
56.067606
68.916432
80.889202
95.198122
106.586854
117.683568
129.656338
143.965258
156.522066
166.742723
178.715493
194.484507
209.377465
220.474178
230.694836
240.915493
247.631925
256.976526
266.029108
273.913615
281.214085
289.682629
296.691080
302.239437
305.743662
307.495775
307.787793
309.539906
309.539906
309.247887
309.247887
308.663850
307.787793
305.451643
303.407512
300.487324
296.983099
292.018779
286.762441
281.214085
273.329577
267.197183
256.684507
248.215962
238.287324
226.314554
214.049765
200.616901
186.307981
172.291080
156.522066
141.921127
128.196244
109.799061
92.861972
76.800939
61.031925
46.138967
30.369953
15.769014
-2.042214
-14.587242
-28.882739
-42.886492
-56.015009
-69.435272
-82.272045
-94.525328
-106.195122
-118.448405
-131.868668
-144.121951
-155.791745
-166.586304
-178.256098
-192.259850
-206.847092
-217.058161
-226.393996
-235.438086
-245.065666
-252.651032
-258.777674
-267.530019
-275.698874
-283.284240
-289.994371
-295.829268
-298.746717
-301.080675
-302.539400
-303.122889
-305.165103
-302.831144
-302.831144
-302.247655
-301.372420
-300.788931
-296.996248
-294.954034
-289.410882
-285.909944
-281.825516
-275.115385
-268.405253
-259.361163
-250.608818
-242.731707
-233.687617
-219.683865
-209.764540
-196.052533
-182.924015
-169.503752
-154.624765
-140.037523
-125.450281
-107.945591
-90.149156
-75.853659
-61.266417
-46.970919
-29.174484
-12.253283
0.292019
15.476995
30.077934
42.926761
56.651643
69.792488
82.641315
94.906103
106.586854
118.851643
130.532394
145.425352
157.398122
167.034742
180.175587
195.068545
211.421596
222.226291
230.110798
241.207512
249.092019
259.604695
266.321127
274.497653
282.966197
290.850704
297.275117
301.947418
305.451643
307.203756
308.371831
309.831925
309.539906
308.663850
308.955869
308.371831
307.203756
305.451643
302.823474
301.363380
296.983099
292.894836
287.054460
280.630047
273.913615
266.029108
256.976526
247.923944
237.411268
225.730516
214.049765
200.616901
185.723944
171.123005
156.230047
142.797183
129.364319
110.091080
92.569953
77.676995
61.615962
47.891080
30.661972
14.892958
-0.583490
-15.170732
-28.590994
-42.594747
-56.015009
-68.560038
-82.272045
-93.650094
-105.611632
-117.573171
-130.118199
-142.954972
-156.375235
-166.002814
-178.547842
-194.010319
-207.722326
-217.058161
-226.977486
-237.188555
-245.649156
-253.526266
-261.403377
-268.405253
-275.407129
-282.117261
-290.286116
-295.829268
-299.330206
-301.955910
-303.122889
-303.122889
-303.998124
-303.998124
-303.122889
-302.247655
-300.205441
-299.038462
-297.579737
-293.495310
-290.577861
-285.326454
-279.199812
-274.240150
-268.113508
-257.610694
-250.025328
-241.564728
-232.228893
-220.559099
-210.348030
-196.052533
-182.924015
-168.628518
-153.166041
-140.329268
-125.158537
-107.945591
-91.899625
-75.853659
-60.391182
-46.679174
-29.174484
-12.836773
0.876056
14.892958
29.493897
42.926761
57.527700
70.668545
82.057277
95.490141
105.710798
117.391549
130.532394
144.549296
156.814085
167.326761
180.175587
195.360563
209.377465
221.350235
229.818779
240.623474
249.092019
259.020657
266.613146
272.745540
282.966197
289.974648
296.691080
301.947418
305.743662
308.079812
309.831925
308.955869
309.247887
309.831925
309.539906
309.539906
307.203756
305.451643
302.531455
300.779343
296.691080
291.726761
287.054460
280.338028
272.745540
265.153052
257.268545
247.631925
236.535211
225.730516
215.217840
202.369014
187.768075
172.291080
156.522066
144.549296
128.196244
109.799061
92.861972
77.092958
61.907981
47.891080
30.077934
16.353052
-0.291745
-14.878987
-28.007505
-41.136023
-55.139775
-67.684803
-81.105066
-92.774859
-103.569418
-116.989681
-128.659475
-142.079737
-154.624765
-164.835835
-177.089118
-191.968105
-205.971857
-217.058161
-225.227017
-236.021576
-243.315197
-252.942777
-259.361163
-267.530019
-275.115385
-282.409006
-288.827392
-295.829268
-298.746717
-300.497186
-301.955910
-302.247655
-302.831144
-303.414634
-301.955910
-301.664165
-300.497186
-299.913696
-296.121013
-293.495310
-289.702627
-285.034709
-279.491557
-273.948405
-266.071295
-257.902439
-249.441839
-241.856473
-231.645403
-219.975610
-207.722326
-195.469043
-180.298311
-166.586304
-152.582552
-138.870544
-123.408068
-107.362101
-88.982176
-73.519700
-58.057223
-43.178236
-27.424015
-12.545028
3.212207
17.813146
32.706103
45.846948
58.403756
71.544601
84.977465
97.242254
109.799061
120.895775
133.452582
145.717371
158.566197
169.370892
181.635681
197.404695
211.713615
222.518310
232.154930
241.207512
252.012207
259.020657
267.197183
275.373709
282.966197
291.434742
298.151174
302.239437
305.743662
307.495775
308.371831
309.247887
309.247887
310.123944
309.247887
308.371831
307.787793
305.451643
303.115493
300.779343
296.691080
292.602817
286.762441
280.046009
273.621596
264.861033
257.268545
247.631925
236.535211
226.314554
213.465728
199.448826
185.431925
170.538967
154.769953
142.213146
126.152113
108.338967
90.817840
75.340845
60.447887
45.554930
28.325822
14.016901
-0.875235
-15.170732
-29.757974
-42.594747
-56.306754
-70.310507
-83.439024
-95.400563
-107.362101
-118.156660
-131.868668
-143.246717
-157.833959
-166.878049
-178.256098
-194.885553
-208.014071
-218.516886
-226.685741
-236.605066
-245.649156
-254.109756
-260.528143
-267.821764
-275.698874
-283.867730
-289.994371
-295.245779
-298.454972
-301.372420
-301.664165
-303.122889
-302.831144
-302.831144
-302.247655
-301.955910
-301.664165
-299.038462
-296.704503
-294.370544
-288.827392
-285.618199
-280.075047
-273.364916
-266.654784
-257.610694
-249.441839
-239.814259
-229.894934
-218.808630
-207.138837
-193.426829
-180.590056
-165.419325
-151.415572
-137.703565
-121.949343
-103.569418
-88.106942
-72.060976
-56.890244
-42.594747
-25.090056
-10.502814
3.212207
18.689202
32.414085
47.307042
60.155869
71.544601
84.977465
97.826291
109.507042
120.895775
134.620657
147.469484
158.566197
171.707042
182.511737
197.696714
212.589671
223.686385
231.570892
242.959624
250.844131
259.020657
267.781221
274.497653
283.842254
290.850704
296.399061
302.239437
306.619718
307.495775
308.663850
310.123944
309.247887
309.539906
309.831925
309.539906
307.495775
305.451643
303.699531
300.195305
296.399061
291.142723
286.762441
280.630047
272.453521
265.737089
255.808451
247.339906
236.535211
224.270423
213.173709
199.156808
185.431925
169.954930
155.353991
142.213146
125.276056
109.215023
91.401878
75.340845
59.571831
44.970892
29.785915
13.140845
-2.042214
-16.629456
-30.341463
-43.469981
-56.890244
-70.018762
-83.147280
-94.525328
-106.195122
-118.448405
-130.701689
-144.413696
-155.791745
-166.586304
-178.547842
-194.593809
-209.472795
-218.516886
-227.560976
-236.313321
-246.524390
-254.693246
-262.278612
-269.280488
-276.865854
-283.867730
-291.161351
-294.954034
-299.038462
-301.372420
-303.706379
-301.955910
-302.831144
-303.706379
-302.539400
-301.955910
-300.205441
-298.746717
-295.829268
-293.203565
-289.119137
-284.742964
-280.075047
-272.489681
-266.071295
-256.735460
-248.274859
-240.106004
-231.061914
-219.392120
-206.847092
-193.426829
-179.714822
-164.544090
-152.874296
-137.703565
-122.824578
-103.569418
-88.398687
-72.352720
-57.473734
-43.761726
-26.548780
-11.669794
4.672300
18.397183
31.830047
46.723005
59.279812
72.712676
86.145540
97.242254
108.630986
120.603756
134.328638
146.593427
158.858216
169.662911
182.219718
197.988732
212.589671
223.686385
232.446948
242.667606
250.844131
260.772770
267.197183
275.081690
284.134272
289.682629
297.567136
302.239437
306.035681
308.371831
308.079812
309.831925
308.955869
309.247887
309.539906
308.079812
306.327700
304.867606
302.531455
300.195305
296.399061
292.018779
286.178404
279.753991
272.453521
264.569014
256.392488
247.339906
236.827230
224.270423
213.757746
200.032864
185.431925
169.954930
155.061972
142.505164
125.568075
108.338967
91.985915
74.464789
59.571831
45.262911
28.617840
14.600939
-1.458724
-15.462477
-28.590994
-42.886492
-56.890244
-70.602251
-82.563790
-94.525328
-105.903377
-117.864916
-130.409944
-142.663227
-156.083490
-166.586304
-178.547842
-194.593809
-206.263602
-219.392120
-226.977486
-237.188555
-245.940901
-254.109756
-261.695122
-268.405253
-276.282364
-283.867730
-289.994371
-295.245779
-299.621951
-300.205441
-302.539400
-303.122889
-302.831144
-301.372420
-302.539400
-301.664165
-299.621951
-298.454972
-294.954034
-293.495310
-287.952158
-283.284240
-278.324578
-271.906191
-264.904315
-256.151970
-247.399625
-239.522514
-229.894934
-219.100375
-205.971857
-193.426829
-178.839587
-164.252345
-150.832083
-136.244841
-120.782364
-102.402439
-87.231707
-70.602251
-55.723265
-40.844278
-24.506567
-10.211069
5.840376
19.273239
34.750235
47.891080
61.907981
74.464789
87.313615
99.578404
110.967136
122.939906
134.912676
148.345540
161.194366
170.538967
184.555869
199.740845
214.341784
224.562441
233.030986
244.127700
252.596244
260.772770
268.073239
276.541784
284.718310
291.434742
299.027230
302.239437
307.787793
308.371831
309.539906
310.415962
310.123944
310.707981
309.539906
309.539906
308.371831
306.327700
304.575587
300.195305
297.275117
290.850704
286.470423
280.338028
272.745540
264.861033
255.224413
246.463850
234.783099
224.270423
211.421596
198.864789
183.387793
168.786854
153.893897
140.753052
124.107981
106.586854
89.357746
74.464789
58.695775
44.970892
28.325822
11.972770
-3.209193
-16.921201
-30.633208
-44.928705
-57.181989
-70.602251
-83.730769
-95.400563
-108.237336
-120.490619
-132.160413
-144.997186
-156.375235
-168.628518
-181.173546
-195.177298
-210.056285
-218.808630
-228.144465
-237.480300
-246.816135
-254.984991
-264.029081
-268.113508
-278.032833
-285.034709
-291.161351
-296.996248
-300.788931
-302.247655
-303.122889
-302.539400
-303.122889
-302.831144
-302.247655
-300.205441
-299.913696
-297.579737
-294.370544
-292.036585
-288.827392
-283.284240
-279.491557
-272.197936
-264.612570
-256.443715
-247.983114
-239.814259
-228.436210
-217.641651
-205.388368
-191.384615
-177.964353
-164.544090
-149.665103
-135.661351
-119.615385
-101.527205
-84.314259
-69.143527
-55.723265
-40.260788
-23.339587
-8.168856
6.132394
20.149296
35.626291
48.767136
61.907981
76.508920
88.189671
99.870423
111.259155
123.231925
136.080751
149.805634
162.362441
171.707042
185.431925
201.200939
214.925822
225.438498
233.030986
243.835681
252.304225
261.064789
268.949296
277.417840
285.302347
291.142723
298.151174
302.823474
306.327700
308.955869
310.415962
310.415962
309.831925
310.123944
310.707981
309.831925
307.203756
305.451643
302.531455
301.363380
295.523005
291.434742
285.886385
280.338028
271.577465
263.400939
254.640376
245.587793
233.907042
224.270423
211.713615
197.988732
183.679812
168.786854
153.017840
140.461033
123.523944
106.586854
88.481690
75.048826
58.987793
44.970892
28.617840
12.556808
-2.917448
-16.337711
-31.508443
-44.345216
-57.181989
-70.602251
-83.439024
-95.984053
-107.945591
-118.448405
-133.035647
-145.580675
-156.958724
-166.878049
-181.465291
-196.344278
-209.472795
-221.142589
-226.393996
-237.188555
-246.232645
-255.568480
-263.737336
-269.572233
-276.574109
-284.159475
-290.869606
-295.829268
-300.497186
-301.372420
-300.788931
-302.539400
-302.539400
-302.247655
-300.497186
-300.788931
-299.621951
-297.287992
-295.245779
-292.328330
-288.827392
-284.159475
-278.324578
-271.906191
-263.153846
-255.568480
-248.274859
-239.230769
-228.436210
-216.474672
-205.388368
-191.676360
-177.964353
-163.377111
-147.331144
-137.120075
-118.740150
-101.527205
-86.064728
-69.143527
-53.097561
-39.677298
-24.798311
-8.752345
6.716432
21.317371
36.210329
48.767136
62.200000
75.048826
87.605634
100.162441
110.675117
123.523944
135.204695
148.053521
161.194366
171.999061
183.971831
200.324883
214.633803
224.854460
233.323005
243.543662
254.056338
261.356808
268.949296
276.541784
283.842254
293.186854
298.151174
303.115493
306.035681
308.079812
309.247887
309.831925
310.123944
309.831925
309.247887
308.663850
307.495775
306.327700
303.699531
300.779343
296.107042
291.142723
285.594366
278.877934
271.869484
263.108920
254.932394
245.587793
235.367136
224.270423
211.421596
197.404695
182.803756
168.786854
154.769953
140.461033
125.276056
104.542723
89.649765
74.756808
58.403756
44.678873
27.449765
13.140845
-1.750469
-16.629456
-30.049719
-44.636961
-58.057223
-70.893996
-83.147280
-95.984053
-106.778612
-119.615385
-131.285178
-145.580675
-157.833959
-167.169794
-181.465291
-196.927767
-208.597561
-219.975610
-227.560976
-238.063790
-246.524390
-255.276735
-262.570356
-268.405253
-278.032833
-284.159475
-289.702627
-297.287992
-299.913696
-300.497186
-301.080675
-301.664165
-302.247655
-302.539400
-301.955910
-300.497186
-299.330206
-296.412758
-294.954034
-291.453096
-287.368668
-282.992495
-277.157598
-270.447467
-263.737336
-254.693246
-247.983114
-238.355535
-227.269231
-217.349906
-204.513133
-190.509381
-176.213884
-162.793621
-147.914634
-133.035647
-118.448405
-100.943715
-83.439024
-68.560038
-52.514071
-38.510319
-22.172608
-6.710131
6.716432
22.193427
35.918310
49.935211
62.200000
75.340845
89.065728
100.454460
112.719249
124.692019
136.956808
150.389671
162.070423
172.583099
186.892019
201.492958
215.509859
226.022535
234.491080
244.711737
253.180282
262.232864
270.409390
276.833803
284.718310
292.310798
299.027230
304.867606
306.035681
308.371831
309.247887
310.123944
311.000000
309.831925
310.123944
309.247887
307.787793
305.159624
302.239437
300.195305
295.230986
291.142723
285.594366
278.877934
270.993427
264.276995
254.640376
244.419718
235.075117
223.102347
211.129577
196.236620
182.803756
167.618779
152.433803
139.292958
122.063850
105.126761
87.605634
72.128638
58.111737
42.342723
27.157746
11.096714
-5.543152
-17.796435
-33.550657
-45.803940
-58.640713
-71.769231
-85.189493
-96.859287
-108.820826
-121.949343
-134.494371
-147.622889
-156.958724
-167.753283
-182.632270
-197.511257
-210.931520
-219.392120
-229.311445
-238.647280
-248.274859
-257.027205
-263.445591
-270.739212
-278.324578
-285.326454
-291.161351
-295.245779
-300.205441
-300.497186
-301.955910
-301.664165
-302.539400
-302.539400
-301.664165
-301.664165
-299.913696
-298.454972
-295.245779
-293.203565
-288.827392
-282.409006
-277.449343
-270.739212
-263.445591
-254.109756
-245.940901
-237.480300
-226.102251
-215.307692
-203.054409
-188.467167
-175.046904
-159.876173
-146.747655
-132.743902
-116.697936
-98.901501
-82.855535
-67.393058
-51.347092
-36.468105
-20.422139
-6.418386
9.052582
23.361502
37.378404
49.935211
63.076056
77.676995
90.233803
101.622535
114.763380
126.152113
137.832864
151.557746
162.946479
174.627230
188.352113
203.829108
216.969953
226.898592
235.951174
244.711737
254.932394
263.108920
270.409390
279.169953
285.886385
292.894836
299.319249
305.743662
306.619718
308.371831
309.831925
310.123944
310.123944
310.123944
310.707981
308.371831
308.079812
305.159624
302.823474
299.903286
295.815023
291.142723
285.594366
277.709859
271.869484
263.108920
254.640376
245.003756
233.615023
223.394366
209.669484
196.236620
181.927700
167.034742
151.849765
138.708920
121.479812
102.790610
87.897653
72.128638
56.359624
41.466667
27.157746
9.928638
-5.251407
-18.379925
-32.967167
-45.512195
-59.224203
-73.227955
-85.189493
-96.859287
-109.404315
-121.657598
-135.661351
-148.789869
-158.709193
-169.212008
-183.799250
-198.678236
-210.348030
-220.267355
-229.019700
-238.939024
-249.150094
-256.443715
-263.153846
-270.447467
-277.449343
-287.076923
-292.328330
-296.121013
-299.038462
-301.372420
-303.414634
-300.788931
-303.122889
-301.080675
-302.539400
-300.788931
-299.913696
-297.579737
-294.662289
-291.744841
-287.660413
-282.117261
-276.282364
-269.863977
-262.570356
-254.109756
-246.232645
-236.896811
-225.518762
-216.182927
-202.762664
-189.634146
-175.922139
-160.167917
-147.039400
-132.743902
-116.114447
-98.318011
-82.563790
-66.809568
-50.471857
-36.759850
-20.130394
-5.834897
9.636620
24.237559
37.378404
50.227230
64.244131
76.800939
89.065728
101.914554
112.427230
125.568075
138.708920
151.557746
163.238498
173.751174
188.936150
203.537089
216.969953
226.898592
235.367136
246.463850
254.348357
263.984977
271.285446
277.709859
285.886385
292.894836
300.195305
303.115493
306.035681
308.955869
308.955869
309.539906
310.707981
310.123944
309.247887
309.539906
306.619718
304.283568
302.823474
299.611268
296.107042
290.558685
285.594366
279.169953
269.533333
261.648826
253.472300
243.543662
231.862911
221.934272
209.377465
195.652582
180.759624
166.742723
151.849765
138.708920
121.479812
103.374648
85.853521
72.128638
56.943662
41.758685
25.113615
8.760563
-5.251407
-19.546904
-33.550657
-46.095685
-60.391182
-72.060976
-84.897749
-96.567542
-109.112570
-121.365854
-133.910882
-147.039400
-158.125704
-169.795497
-183.507505
-199.261726
-210.931520
-221.142589
-229.019700
-239.230769
-248.858349
-256.735460
-263.737336
-269.863977
-278.324578
-286.201689
-292.911820
-296.412758
-299.038462
-301.664165
-301.372420
-301.955910
-301.955910
-301.955910
-301.955910
-299.913696
-298.454972
-296.412758
-294.078799
-291.161351
-287.076923
-281.242026
-276.574109
-268.405253
-263.153846
-253.818011
-245.940901
-236.605066
-225.518762
-215.015947
-202.762664
-189.050657
-173.588180
-158.709193
-144.705441
-131.868668
-114.655722
-97.151032
-81.105066
-65.059099
-50.471857
-36.468105
-20.713884
-2.917448
10.512676
23.653521
39.422535
52.271362
65.120188
78.261033
90.817840
103.374648
115.055399
127.028169
139.292958
151.557746
165.282629
174.335211
188.936150
204.997183
217.261972
227.190610
236.827230
246.463850
255.224413
263.108920
270.701408
278.877934
287.930516
292.310798
299.319249
305.743662
306.911737
308.663850
310.123944
310.707981
310.415962
309.831925
310.415962
308.663850
307.203756
306.035681
303.991549
300.487324
296.399061
289.974648
285.302347
278.293897
270.701408
262.816901
254.056338
243.543662
232.154930
221.350235
207.625352
194.484507
179.591549
163.238498
151.265728
136.956808
120.311737
103.082629
84.977465
70.376526
55.191549
39.714554
24.237559
8.468545
-4.667917
-19.838649
-33.258912
-48.429644
-60.974672
-73.811445
-85.481238
-98.901501
-110.863039
-121.074109
-135.077861
-147.914634
-159.292683
-170.087242
-184.090994
-199.553471
-212.681989
-223.184803
-229.894934
-238.647280
-248.858349
-257.318949
-264.029081
-271.322702
-277.741088
-285.909944
-292.328330
-296.412758
-299.621951
-301.372420
-301.372420
-302.247655
-303.122889
-301.372420
-301.664165
-301.080675
-299.330206
-297.871482
-294.662289
-290.577861
-286.785178
-282.409006
-275.990619
-269.280488
-261.403377
-254.109756
-245.065666
-236.313321
-225.227017
-214.140713
-201.595685
-187.883677
-174.171670
-159.584428
-145.288931
-132.452158
-114.655722
-98.026266
-81.105066
-65.934334
-50.763602
-35.009381
-18.963415
-4.084428
11.388732
25.113615
38.838498
50.519249
66.288263
78.261033
91.693897
101.914554
113.595305
126.736150
139.584977
151.849765
164.114554
174.627230
189.520188
202.953052
216.969953
227.190610
236.243192
246.463850
254.348357
263.692958
271.285446
278.001878
285.594366
293.770892
299.903286
304.283568
307.203756
309.247887
310.707981
310.123944
310.415962
310.415962
309.539906
308.663850
306.327700
304.575587
303.115493
299.611268
295.815023
290.266667
284.134272
277.417840
270.117371
260.772770
252.888263
243.835681
232.738967
221.058216
208.501408
194.776526
180.175587
164.406573
151.849765
136.372770
120.603756
101.622535
86.145540
70.084507
54.899531
39.714554
23.653521
7.592488
-4.959662
-18.963415
-33.842402
-46.679174
-59.224203
-73.519700
-86.064728
-96.567542
-110.279550
-121.949343
-134.494371
-148.206379
-160.167917
-170.378987
-183.215760
-199.261726
-211.223265
-222.309568
-230.770169
-238.647280
-248.858349
-256.151970
-264.320826
-270.155722
-279.199812
-286.201689
-291.744841
-297.287992
-300.205441
-300.788931
-302.247655
-302.831144
-301.080675
-301.955910
-301.664165
-301.955910
-299.330206
-296.704503
-294.370544
-291.744841
-285.326454
-281.825516
-275.407129
-269.572233
-261.111632
-252.651032
-244.190432
-236.021576
-225.227017
-213.557223
-200.428705
-187.008443
-171.254221
-156.666979
-144.997186
-130.701689
-112.321764
-95.692308
-79.062852
-63.892120
-48.429644
-33.258912
-17.504690
-1.458724
12.264789
26.281690
40.006573
53.147418
66.580282
80.013146
92.861972
104.542723
116.515493
129.364319
141.045070
154.185915
164.698592
176.087324
191.564319
204.997183
218.430047
228.066667
236.535211
247.047887
255.516432
264.861033
271.577465
280.630047
287.930516
294.062911
300.487324
306.035681
307.787793
308.955869
310.123944
311.000000
311.000000
310.123944
308.663850
309.539906
306.911737
305.451643
301.947418
299.319249
294.938967
290.558685
284.718310
277.417840
269.533333
261.064789
252.596244
243.251643
231.862911
219.306103
207.625352
193.608451
178.715493
163.238498
150.097653
136.372770
118.559624
100.162441
84.977465
68.624413
53.439437
38.546479
22.777465
6.424413
-8.168856
-21.589118
-35.009381
-49.013133
-62.433396
-76.437148
-87.815197
-99.776735
-110.863039
-123.699812
-136.536585
-148.498124
-162.210131
-171.254221
-185.549719
-200.720450
-212.681989
-222.309568
-230.478424
-240.689493
-250.608818
-256.735460
-263.445591
-272.197936
-279.783302
-285.909944
-293.495310
-297.579737
