-300.113529
-311.000000
84.101408
58.987793
-213.904447
-285.990539
-275.986755
-265.100284
-255.979186
-245.092715
-233.029328
-220.377483
-205.960265
-191.837275
-176.243141
-161.531693
-148.291391
-132.991485
-115.631977
-95.035951
-80.618732
-62.670766
-48.253548
-34.719016
-18.830653
-2.942289
14.600939
29.785915
39.422535
51.103286
65.996244
76.216901
91.109859
101.330516
115.931455
128.488263
139.000939
150.389671
166.450704
175.503286
184.847887
203.829108
217.261972
220.766197
232.154930
247.047887
250.552113
256.976526
267.489202
274.205634
281.214085
292.602817
297.567136
299.611268
301.363380
306.619718
307.203756
305.451643
310.707981
311.000000
305.451643
305.451643
302.531455
299.611268
300.779343
300.195305
291.142723
286.178404
279.169953
276.833803
271.577465
257.852582
248.800000
241.791549
234.199061
218.430047
206.165258
191.856338
179.883568
164.698592
150.681690
137.248826
122.063850
102.498592
87.605634
70.084507
56.943662
42.342723
26.865728
9.052582
-4.413434
-18.536424
-32.953642
-45.899716
-60.905393
-73.263009
-86.797540
-98.566698
-110.041627
-124.753075
-136.228004
-150.350993
-162.708609
-173.595080
-187.718070
-200.369915
-215.964049
-226.850520
-232.440870
-245.975402
-253.036897
-261.569536
-267.159886
-276.575213
-284.519395
-290.109745
-299.230842
-298.348155
-304.821192
-304.526963
-307.763482
-309.823084
-309.823084
-304.821192
-305.703879
-306.586566
-303.938505
-301.290445
-299.819300
-295.994324
-294.523179
-283.048250
-281.282876
-274.809839
-267.454115
-258.333018
-249.800378
-236.854305
-226.850520
-217.435194
-202.135289
-188.012299
-174.183538
-155.352886
-145.349101
-128.872280
-115.043519
-95.330180
-77.382214
-62.964995
-47.076632
-31.188269
-15.299905
-0.294229
14.308920
28.617840
41.466667
54.315493
68.040376
80.889202
93.738028
104.834742
115.347418
127.904225
140.169014
153.601878
165.574648
174.043192
190.104225
202.953052
216.677934
225.438498
235.367136
247.047887
255.516432
264.276995
267.781221
277.709859
284.718310
292.018779
298.151174
302.531455
308.079812
307.495775
307.495775
309.831925
308.955869
308.955869
308.371831
308.079812
303.699531
302.239437
301.655399
299.027230
293.770892
289.974648
282.966197
275.957746
270.117371
259.896714
251.720188
242.959624
231.570892
219.014085
208.793427
193.608451
179.883568
165.282629
151.265728
139.292958
122.355869
105.418779
87.605634
73.588732
58.111737
42.926761
27.449765
10.512676
-4.413434
-17.947966
-32.953642
-45.899716
-58.551561
-72.086093
-85.620624
-97.684011
-109.453169
-122.399243
-136.228004
-148.879849
-161.237465
-172.123936
-186.246925
-201.841060
-213.904447
-224.202460
-233.323557
-243.033113
-252.154210
-260.392621
-267.748344
-277.457900
-281.871334
-290.698202
-295.994324
-301.584674
-304.526963
-305.998108
-306.586566
-306.292337
-306.880795
-307.469253
-305.703879
-304.821192
-303.350047
-300.407758
-298.348155
-296.288553
-292.463576
-286.284768
-279.517502
-275.398297
-266.865658
-256.861873
-248.623463
-238.031220
-227.144749
-214.198675
-202.135289
-187.718070
-173.300851
-159.177862
-144.466414
-130.343425
-112.101230
-94.741722
-78.559130
-62.964995
-47.665090
-32.070956
-16.771050
-0.588458
14.016901
27.449765
41.758685
55.191549
67.748357
79.721127
92.861972
106.002817
117.099531
128.780282
141.045070
153.309859
165.574648
176.671362
189.228169
203.829108
217.261972
227.482629
235.659155
244.127700
254.932394
263.692958
270.701408
279.169953
285.302347
292.894836
298.151174
304.575587
306.035681
306.327700
309.247887
308.955869
307.495775
309.539906
307.787793
306.619718
306.619718
302.531455
301.655399
297.859155
294.354930
288.806573
282.382160
277.709859
268.365258
259.896714
250.552113
241.499531
231.278873
219.598122
208.209390
193.608451
179.883568
165.282629
151.557746
137.832864
121.771831
103.082629
86.729577
72.128638
56.067606
40.006573
26.281690
8.468545
-5.590350
-19.124882
-34.130558
-47.370861
-62.082308
-74.439924
-86.797540
-99.155156
-111.512772
-123.576159
-136.228004
-149.174078
-161.531693
-172.418165
-187.423841
-202.429518
-215.375591
-225.673605
-234.206244
-243.033113
-253.036897
-260.686850
-267.159886
-276.575213
-283.048250
-290.109745
-295.994324
-300.701987
-303.350047
-305.115421
-307.175024
-308.646168
-306.880795
-308.057711
-306.586566
-305.703879
-303.350047
-303.055818
-299.819300
-295.111637
-291.580889
-286.873226
-281.282876
-274.221381
-266.277200
-257.450331
-248.035005
-239.208136
-228.321665
-215.375591
-203.017975
-189.483444
-174.183538
-158.883633
-144.760643
-130.049196
-112.983917
-95.035951
-79.147588
-62.670766
-48.253548
-33.247871
-14.711447
-1.765374
14.892958
27.449765
42.342723
54.899531
68.332394
81.181221
93.446009
106.294836
117.683568
129.948357
141.629108
154.185915
166.158685
176.379343
190.396244
204.705164
217.846009
227.482629
237.119249
245.003756
254.640376
263.108920
270.117371
278.877934
285.886385
294.062911
298.735211
303.991549
306.619718
307.787793
308.079812
308.955869
308.663850
308.079812
308.663850
307.203756
305.743662
303.407512
300.779343
299.611268
294.354930
289.098592
283.842254
278.293897
270.701408
260.480751
250.844131
243.835681
230.986854
221.642254
208.501408
193.024413
179.299531
164.406573
150.681690
139.000939
122.063850
103.082629
87.605634
71.836620
55.775587
42.050704
24.821596
9.636620
-5.590350
-19.419111
-32.365184
-47.370861
-59.140019
-73.851466
-86.209082
-98.860927
-110.924314
-122.399243
-136.228004
-149.468307
-160.649007
-171.241249
-186.835383
-200.958373
-214.198675
-225.085147
-233.617786
-243.621570
-253.331126
-259.804163
-268.042573
-274.809839
-282.165563
-290.403974
-296.877010
-301.584674
-304.526963
-305.703879
-306.292337
-305.703879
-305.998108
-306.292337
-305.703879
-305.703879
-301.290445
-300.701987
-297.759697
-295.994324
-290.698202
-285.696310
-280.105960
-273.632923
-265.982971
-257.450331
-248.329234
-238.913907
-227.733207
-216.258278
-203.606433
-188.306528
-174.771996
-159.766320
-145.937559
-131.520341
-115.043519
-96.507096
-80.030274
-65.318827
-50.313150
-32.953642
-17.947966
-1.765374
12.556808
25.989671
39.714554
53.731455
66.872300
80.305164
91.109859
104.834742
114.763380
126.736150
139.584977
152.141784
164.990610
174.335211
187.768075
203.245070
218.138028
226.898592
236.535211
247.047887
254.348357
263.400939
270.409390
278.001878
286.178404
293.478873
298.735211
302.823474
305.451643
306.035681
308.955869
308.371831
308.955869
308.663850
308.371831
307.787793
304.575587
304.283568
301.947418
298.735211
294.062911
288.514554
285.010329
278.001878
269.533333
260.480751
252.012207
242.959624
230.986854
219.890141
208.209390
193.608451
180.175587
166.450704
151.557746
138.416901
122.063850
104.834742
87.021596
71.544601
56.943662
42.050704
25.113615
10.220657
-5.296121
-18.242195
-33.542100
-46.488174
-60.316935
-74.439924
-85.032167
-98.566698
-110.041627
-121.810785
-134.168401
-148.291391
-160.354778
-170.652791
-185.658467
-201.841060
-213.021760
-225.379376
-233.029328
-243.033113
-252.448439
-259.215705
-267.159886
-273.632923
-281.871334
-290.992431
-297.759697
-301.290445
-302.761589
-305.115421
-305.998108
-307.469253
-305.998108
-306.292337
-306.586566
-304.821192
-302.761589
-300.113529
-298.348155
-293.934721
-291.580889
-285.696310
-278.340587
-273.632923
-265.100284
-257.450331
-248.623463
-240.090823
-226.262062
-215.375591
-203.900662
-188.012299
-175.066225
-159.472091
-146.526017
-130.343425
-114.455061
-95.918638
-79.147588
-64.436140
-49.136235
-33.542100
-15.888363
-1.471145
12.848826
27.157746
41.174648
54.023474
66.288263
79.137089
92.569953
105.126761
115.639437
127.612207
141.337089
152.433803
164.990610
176.087324
190.104225
204.705164
217.553991
227.774648
236.535211
245.587793
256.100469
262.816901
271.285446
280.046009
285.010329
294.062911
299.611268
304.283568
305.451643
308.371831
308.955869
309.539906
309.247887
308.663850
308.955869
307.787793
306.035681
304.283568
301.363380
298.735211
294.062911
289.098592
284.426291
277.709859
269.825352
261.064789
252.596244
242.959624
231.862911
219.890141
206.457277
192.732394
179.883568
165.574648
150.389671
137.540845
120.311737
101.914554
86.437559
70.960563
54.899531
40.298592
23.653521
9.344601
-5.590350
-20.301798
-34.424787
-48.842006
-62.376537
-76.499527
-87.974456
-99.743614
-112.689688
-124.458846
-135.639546
-150.645222
-162.120151
-173.006623
-187.129612
-202.429518
-214.492904
-225.379376
-233.029328
-243.621570
-252.742668
-259.215705
-268.631031
-275.398297
-282.165563
-289.815516
-295.700095
-300.113529
-302.467360
-306.292337
-305.703879
-306.880795
-305.115421
-305.998108
-306.586566
-305.409650
-302.173132
-300.996216
-299.525071
-295.111637
-290.698202
-285.696310
-280.400189
-273.338694
-265.982971
-257.156102
-248.035005
-237.736991
-227.144749
-215.964049
-203.017975
-188.012299
-174.771996
-160.354778
-145.937559
-130.931883
-114.455061
-95.330180
-79.147588
-66.201514
-48.547777
-33.836329
-16.476821
-1.176916
13.432864
26.865728
40.882629
54.023474
67.164319
79.429108
91.985915
105.418779
116.515493
128.488263
140.753052
153.893897
165.282629
176.963380
189.228169
204.997183
219.014085
227.190610
237.119249
245.295775
256.100469
263.692958
270.993427
278.585915
285.886385
292.310798
300.487324
304.283568
307.203756
306.911737
308.955869
309.831925
309.247887
309.247887
308.955869
307.787793
306.911737
303.699531
302.239437
299.027230
294.354930
290.850704
283.550235
278.001878
269.533333
261.064789
252.304225
242.375587
230.694836
218.430047
206.749296
193.316432
179.007512
163.822535
149.221596
136.956808
119.435681
101.914554
84.393427
70.960563
55.483568
40.298592
23.069484
7.300469
-6.178808
-20.007569
-35.013245
-48.842006
-61.493851
-75.616840
-87.974456
-100.332072
-112.395459
-122.693472
-136.522233
-150.056764
-161.237465
-172.418165
-186.246925
-202.429518
-215.081362
-225.967833
-234.794702
-243.033113
-253.331126
-260.098392
-267.748344
-276.280984
-282.754021
-290.992431
-296.288553
-302.173132
-303.350047
-304.821192
-306.880795
-305.115421
-307.469253
-303.938505
-305.115421
-303.350047
-302.761589
-299.819300
-299.230842
-295.111637
-289.227058
-285.107852
-280.400189
-273.338694
-265.688742
-257.156102
-248.035005
-239.208136
-227.144749
-216.258278
-201.546831
-189.483444
-175.654683
-160.943236
-145.643330
-132.403027
-115.631977
-97.095553
-80.030274
-64.141911
-50.901608
-33.542100
-18.242195
-2.942289
11.680751
25.989671
40.590610
53.731455
65.704225
78.261033
91.693897
104.542723
115.055399
127.320188
140.169014
153.017840
164.990610
175.211268
188.644131
204.997183
216.969953
227.482629
237.119249
244.711737
255.516432
262.524883
270.993427
277.709859
287.638498
294.646948
299.903286
303.991549
307.203756
307.787793
308.371831
309.539906
308.663850
309.831925
308.371831
307.203756
305.743662
304.283568
303.407512
298.151174
294.354930
289.974648
284.134272
278.293897
269.241315
259.312676
250.844131
241.207512
230.986854
220.182160
207.917371
192.440376
179.591549
164.990610
150.097653
137.248826
120.311737
101.622535
84.977465
71.836620
54.607512
39.714554
23.653521
7.008451
-6.767266
-20.596026
-34.719016
-48.253548
-61.788079
-74.734153
-87.091769
-98.566698
-110.630085
-122.987701
-135.933775
-149.762535
-161.531693
-170.947020
-186.246925
-201.841060
-214.787133
-224.790918
-232.735099
-243.915799
-252.448439
-260.392621
-267.748344
-276.280984
-282.459792
-291.286660
-296.877010
-300.996216
-303.350047
-302.761589
-305.703879
-305.998108
-305.703879
-305.998108
-305.115421
-305.703879
-302.467360
-300.996216
-297.759697
-293.934721
-290.403974
-285.107852
-279.223273
-273.338694
-263.629139
-256.567644
-247.740776
-238.031220
-227.144749
-215.669820
-203.312204
-188.012299
-175.066225
-159.472091
-146.231788
-131.814570
-114.749290
-96.507096
-80.030274
-64.141911
-49.430464
-34.130558
-17.359508
-1.471145
11.680751
25.989671
39.714554
53.439437
66.872300
79.429108
92.277934
104.542723
114.763380
127.904225
141.045070
152.433803
164.990610
175.503286
190.688263
204.705164
217.553991
226.606573
236.243192
246.463850
255.808451
264.569014
271.869484
280.046009
287.346479
295.523005
300.487324
305.451643
306.911737
308.371831
308.663850
309.539906
309.247887
308.955869
308.955869
307.787793
306.035681
303.991549
300.779343
299.319249
294.062911
289.098592
283.550235
276.833803
269.825352
261.064789
252.304225
242.083568
230.110798
219.014085
206.165258
193.316432
177.839437
163.822535
149.805634
136.080751
118.851643
101.622535
84.977465
68.916432
54.607512
38.838498
22.777465
6.132394
-7.649953
-21.772942
-35.307474
-49.136235
-62.670766
-75.616840
-89.445601
-101.508988
-114.160833
-125.047304
-136.816462
-151.233680
-164.179754
-173.006623
-188.012299
-203.312204
-214.492904
-225.673605
-233.029328
-243.327342
-253.625355
-260.098392
-267.748344
-276.869442
-283.048250
-291.286660
-297.171239
-300.701987
-303.644276
-305.409650
-305.998108
-306.586566
-305.703879
-305.998108
-305.115421
-304.232734
-302.467360
-300.407758
-298.642384
-294.228950
-291.286660
-285.107852
-279.811731
-273.044465
-264.511826
-255.684957
-248.035005
-239.208136
-227.733207
-215.669820
-203.312204
-188.894986
-175.360454
-160.649007
-145.643330
-131.520341
-112.983917
-96.507096
-80.324503
-65.318827
-49.136235
-34.719016
-16.182592
-1.176916
11.972770
24.821596
40.006573
53.731455
66.288263
79.137089
92.861972
105.126761
116.223474
127.320188
139.876995
152.141784
165.282629
175.211268
190.104225
205.873239
219.306103
226.606573
237.119249
246.171831
256.100469
264.276995
271.577465
279.461972
287.638498
294.062911
299.903286
303.699531
306.619718
308.371831
308.371831
308.955869
308.371831
309.247887
308.955869
307.495775
306.035681
303.115493
301.655399
298.443192
293.770892
289.098592
282.674178
277.125822
269.533333
260.480751
251.136150
242.667606
230.694836
219.014085
205.873239
192.732394
178.131455
163.530516
149.513615
136.664789
119.143662
101.622535
84.101408
69.208451
55.775587
38.254460
23.361502
5.840376
-8.238411
-22.067171
-36.778619
-49.430464
-62.376537
-76.793756
-89.151372
-100.626301
-112.689688
-124.458846
-136.816462
-150.350993
-162.120151
-173.006623
-187.423841
-203.017975
-214.492904
-227.144749
-233.323557
-243.327342
-252.448439
-260.981079
-268.631031
-277.163671
-283.048250
-290.992431
-295.700095
-301.584674
-303.350047
-304.821192
-305.703879
-307.175024
-305.703879
-305.703879
-304.232734
-304.526963
-302.761589
-299.230842
-298.053926
-294.228950
-289.521287
-285.696310
-279.517502
-272.456008
-264.511826
-255.684957
-246.858089
-237.736991
-227.144749
-215.081362
-202.723746
-189.189215
-173.595080
-159.177862
-147.114475
-131.226112
-115.043519
-96.801325
-80.324503
-65.024598
-49.724693
-34.130558
-18.242195
-2.353832
11.972770
26.865728
40.006573
53.439437
66.580282
79.721127
93.446009
104.250704
115.347418
127.320188
140.169014
153.017840
164.406573
176.671362
189.228169
205.289202
218.722066
227.482629
237.703286
246.171831
255.808451
262.816901
271.285446
278.877934
285.886385
294.354930
299.027230
304.575587
306.327700
307.495775
310.123944
309.539906
310.415962
308.371831
309.831925
306.911737
305.743662
304.283568
302.239437
298.151174
293.186854
289.390610
283.842254
276.249765
268.365258
260.480751
252.596244
241.207512
230.110798
219.014085
205.873239
191.856338
177.547418
162.070423
148.345540
135.204695
117.391549
99.870423
84.685446
69.208451
54.023474
37.962441
21.025352
6.424413
-8.826868
-21.772942
-35.601703
-50.018921
-63.553453
-75.911069
-90.034059
-100.920530
-112.395459
-125.341533
-137.404920
-151.233680
-162.708609
-173.006623
-188.600757
-204.194891
-216.258278
-225.967833
-235.383160
-245.092715
-252.742668
-261.863765
-268.631031
-275.692526
-283.636708
-289.227058
-297.171239
-302.173132
-303.350047
-304.526963
-304.526963
-305.998108
-305.409650
-305.703879
-305.703879
-305.409650
-303.055818
-299.525071
-298.642384
-294.523179
-289.815516
-283.048250
-279.517502
-273.338694
-264.511826
-256.273415
-246.858089
-236.854305
-227.438978
-215.375591
-203.312204
-188.600757
-175.654683
-158.883633
-145.937559
-131.226112
-114.160833
-96.801325
-79.736045
-65.024598
-50.607379
-33.542100
-17.359508
-1.765374
11.972770
26.281690
40.298592
53.147418
66.872300
78.261033
92.861972
103.958685
115.639437
126.444131
139.584977
153.309859
164.114554
174.627230
189.520188
205.289202
218.430047
228.650704
237.411268
246.463850
255.808451
265.153052
271.577465
279.753991
287.638498
294.354930
301.947418
304.575587
306.327700
308.371831
308.371831
309.539906
309.831925
309.539906
309.831925
307.495775
305.451643
304.283568
300.779343
297.859155
293.770892
288.222535
282.966197
276.541784
268.073239
259.312676
251.720188
241.207512
229.818779
219.014085
205.581221
192.440376
177.547418
163.822535
148.637559
134.328638
117.683568
99.870423
83.225352
68.624413
53.147418
37.962441
21.025352
4.964319
-9.121097
-21.184484
-37.072848
-49.430464
-63.847682
-76.499527
-89.739830
-101.508988
-112.689688
-125.341533
-137.110691
-151.822138
-162.414380
-173.300851
-187.423841
-203.312204
-215.669820
-225.379376
-234.794702
-244.210028
-253.625355
-261.275307
-269.219489
-278.046358
-284.225166
-292.169347
-296.288553
-300.701987
-303.644276
-304.821192
-305.703879
-306.586566
-307.469253
-306.586566
-304.526963
-303.055818
-302.761589
-300.701987
-298.642384
-293.934721
-290.403974
-285.402081
-279.811731
-272.750237
-265.394513
-255.096500
-247.152318
-237.148534
-226.262062
-215.964049
-202.135289
-188.894986
-174.183538
-159.766320
-146.231788
-129.754967
-112.983917
-96.507096
-79.441816
-64.436140
-49.724693
-34.424787
-16.771050
-2.648061
12.264789
25.989671
40.006573
53.439437
66.872300
79.429108
91.985915
103.082629
115.347418
126.444131
140.169014
153.017840
165.282629
175.795305
189.812207
206.165258
217.261972
228.066667
236.243192
247.047887
256.100469
263.984977
272.161502
279.753991
288.514554
294.354930
301.363380
305.159624
306.911737
309.247887
309.247887
309.831925
309.539906
309.831925
308.663850
306.911737
305.451643
303.699531
300.779343
298.735211
294.354930
288.806573
283.258216
277.125822
268.073239
259.312676
250.552113
240.623474
230.110798
218.722066
205.581221
191.272300
177.547418
163.530516
148.637559
134.328638
117.683568
98.994366
82.933333
67.748357
53.439437
37.962441
20.733333
4.672300
-10.592242
-22.949858
-36.778619
-50.018921
-64.436140
-76.499527
-90.034059
-102.980132
-114.455061
-126.224219
-138.581835
-151.822138
-163.885525
-175.360454
-189.777673
-204.194891
-216.846736
-225.967833
-234.500473
-244.210028
-253.036897
-261.863765
-269.219489
-276.575213
-283.048250
-289.815516
-298.348155
-300.996216
-303.350047
-305.115421
-304.821192
-305.115421
-305.703879
-305.998108
-305.409650
-305.409650
-302.467360
-300.701987
-296.877010
-295.700095
-289.521287
-285.107852
-279.811731
-273.044465
-263.923368
-255.979186
-247.152318
-238.325449
-228.027436
-215.081362
-203.017975
-189.483444
-174.771996
-160.060549
-145.643330
-131.814570
-114.749290
-96.507096
-80.030274
-64.141911
-50.901608
-34.424787
-17.065279
-1.765374
12.556808
26.281690
40.006573
53.439437
66.288263
79.137089
91.109859
102.790610
115.639437
126.736150
139.876995
152.433803
164.406573
174.919249
190.980282
204.997183
217.553991
227.774648
236.243192
247.339906
255.224413
264.569014
271.869484
279.461972
286.470423
294.646948
299.319249
303.991549
307.787793
308.371831
308.955869
308.663850
309.247887
308.663850
308.079812
307.203756
306.327700
303.699531
301.655399
299.027230
292.602817
287.930516
284.426291
275.665728
268.365258
260.772770
251.136150
242.083568
230.110798
218.138028
205.581221
191.564319
177.839437
161.778404
148.053521
135.204695
116.807512
99.578404
82.349296
68.040376
52.271362
36.794366
21.317371
3.796244
-10.003784
-23.244087
-38.249763
-51.784295
-63.553453
-77.382214
-91.210974
-101.803217
-115.043519
-127.106906
-138.876064
-152.999054
-163.885525
-173.889309
-188.306528
-203.900662
-216.552507
-226.262062
-235.383160
-244.504257
-252.742668
-261.863765
-269.219489
-276.869442
-283.048250
-291.580889
-296.582781
-302.467360
-303.938505
-305.703879
-306.292337
-306.880795
-306.880795
-305.703879
-305.703879
-303.644276
-302.761589
-300.407758
-297.465468
-295.111637
-289.227058
-285.107852
-278.340587
-273.044465
-264.806055
-254.802271
-248.035005
-237.442763
-227.144749
-215.669820
-202.723746
-188.306528
-175.066225
-160.060549
-145.349101
-132.108798
-113.278146
-96.507096
-79.441816
-63.847682
-49.430464
-33.247871
-18.242195
-2.942289
11.388732
26.573709
40.298592
52.271362
66.288263
79.429108
91.693897
104.542723
114.471362
126.444131
139.292958
150.973709
164.990610
174.627230
189.228169
204.997183
218.430047
227.190610
237.995305
245.587793
256.684507
263.692958
270.117371
279.461972
286.470423
295.230986
299.027230
304.283568
307.787793
307.787793
308.079812
310.415962
308.663850
309.247887
308.663850
307.787793
305.743662
303.699531
301.071362
297.567136
293.186854
288.222535
281.798122
277.417840
267.781221
259.604695
250.260094
240.331455
229.234742
217.553991
205.581221
190.980282
176.671362
162.362441
149.221596
134.328638
115.931455
99.286385
81.473239
66.580282
52.855399
35.918310
20.149296
5.256338
-10.298013
-23.538316
-37.367077
-51.195837
-65.613056
-77.676443
-91.210974
-103.274361
-113.866604
-126.518448
-139.758751
-152.410596
-163.297067
-174.771996
-188.600757
-205.666036
-216.258278
-226.850520
-235.677389
-245.681173
-254.213813
-260.981079
-267.454115
-275.398297
-282.754021
-290.109745
-295.700095
-300.996216
-304.232734
-304.821192
-305.998108
-306.880795
-306.292337
-305.115421
-305.703879
-304.526963
-303.055818
-300.407758
-298.053926
-294.817408
-290.109745
-285.696310
-278.929044
-272.161779
-264.511826
-255.684957
-247.152318
-238.325449
-226.556291
-214.492904
-202.723746
-189.483444
-175.360454
-160.354778
-145.937559
-131.226112
-113.278146
-96.212867
-79.736045
-65.907285
-48.253548
-34.719016
-17.359508
-2.353832
11.972770
26.573709
39.422535
52.855399
67.164319
78.845070
93.153991
104.250704
116.223474
126.736150
140.169014
153.601878
164.406573
175.503286
189.228169
206.457277
218.430047
228.066667
237.411268
246.463850
255.516432
263.692958
270.993427
279.169953
286.178404
294.062911
299.611268
303.991549
306.327700
308.079812
308.079812
309.247887
308.663850
308.371831
308.371831
307.203756
304.575587
302.823474
300.779343
296.983099
292.602817
288.514554
282.966197
275.665728
266.905164
259.020657
251.720188
241.207512
229.818779
218.722066
205.873239
192.732394
177.839437
162.362441
148.053521
134.620657
116.807512
100.162441
82.933333
67.164319
53.439437
37.378404
22.193427
5.840376
-8.826868
-23.244087
-37.367077
-50.313150
-63.259224
-76.793756
-89.445601
-100.920530
-112.689688
-123.870388
-137.404920
-150.350993
-161.825922
-172.418165
-188.600757
-202.429518
-215.669820
-225.673605
-233.912015
-244.210028
-252.448439
-261.569536
-268.631031
-275.986755
-282.459792
-290.109745
-296.288553
-300.407758
-303.055818
-304.526963
-304.526963
-305.409650
-305.115421
-305.409650
-305.409650
-302.761589
-303.350047
-300.113529
-296.582781
-293.640492
-289.521287
-284.519395
-278.340587
-270.984863
-263.923368
-256.273415
-246.269631
-237.736991
-225.967833
-213.904447
-200.958373
-187.718070
-172.712394
-158.000946
-144.466414
-130.343425
-112.395459
-95.035951
-78.853359
-63.553453
-47.959319
-31.482498
-16.182592
-0.294229
12.556808
27.741784
41.758685
54.607512
67.748357
80.889202
93.446009
106.002817
115.931455
129.072300
141.629108
154.185915
165.866667
176.379343
191.856338
206.749296
219.598122
227.774648
237.411268
248.215962
255.516432
265.445070
271.285446
281.214085
286.470423
294.938967
300.487324
305.743662
306.327700
308.663850
308.955869
310.123944
309.247887
307.787793
308.371831
307.495775
306.327700
303.115493
301.363380
299.027230
292.602817
289.682629
281.798122
276.541784
268.365258
259.312676
250.552113
240.915493
229.234742
217.553991
204.705164
191.564319
176.379343
162.070423
147.177465
133.160563
115.931455
98.118310
81.765258
67.164319
52.271362
35.626291
20.441315
5.548357
-10.592242
-23.244087
-38.838221
-51.784295
-65.613056
-78.559130
-91.210974
-103.274361
-115.043519
-127.106906
-138.581835
-152.410596
-163.885525
-174.477767
-190.366131
-204.194891
-216.258278
-225.673605
-235.383160
-244.504257
-253.331126
-261.275307
-269.219489
-276.575213
-283.342479
-290.992431
-295.405866
-300.113529
-303.938505
-305.409650
-305.115421
-304.821192
-305.115421
-305.409650
-304.526963
-304.526963
-301.584674
-299.819300
-297.759697
-295.111637
-290.109745
-284.225166
-279.517502
-272.456008
-264.217597
-256.567644
-246.563860
-238.325449
-225.967833
-214.787133
-201.252602
-188.600757
-172.418165
-159.766320
-145.643330
-130.637654
-114.160833
-96.212867
-79.441816
-64.730369
-48.547777
-33.247871
-16.771050
-1.765374
13.432864
25.989671
40.590610
54.607512
66.288263
80.305164
91.401878
104.542723
115.931455
127.904225
140.169014
153.017840
164.990610
175.795305
190.688263
207.041315
217.261972
228.066667
236.827230
247.631925
256.100469
265.153052
272.161502
279.169953
287.054460
293.478873
300.195305
304.575587
306.035681
307.787793
308.955869
308.955869
309.539906
308.955869
308.371831
307.495775
304.575587
303.699531
301.655399
297.567136
292.602817
288.222535
282.966197
276.541784
267.197183
258.728638
249.968075
239.455399
228.650704
217.261972
203.537089
190.104225
176.963380
161.778404
147.177465
133.744601
116.223474
97.242254
80.597183
66.580282
51.979343
35.334272
19.857277
3.796244
-10.886471
-25.009461
-38.249763
-52.372753
-65.907285
-77.382214
-90.328288
-103.568590
-113.866604
-126.518448
-138.581835
-152.999054
-163.885525
-175.360454
-190.366131
-203.900662
-216.552507
-226.556291
-234.206244
-244.210028
-253.919584
-262.157994
-269.513718
-275.986755
-283.636708
-290.109745
-297.171239
-301.878903
-303.350047
-303.938505
-305.409650
-306.292337
-305.115421
-305.703879
-305.409650
-304.232734
-302.761589
-300.113529
-297.465468
-295.111637
-290.403974
-285.696310
-277.752129
-272.750237
-263.334910
-255.390728
-245.386944
-235.677389
-225.967833
-214.787133
-200.664144
-187.423841
-172.712394
-158.000946
-144.172185
-130.049196
-112.395459
-93.859035
-77.382214
-64.141911
-48.253548
-32.365184
-15.005676
-0.000000
14.892958
27.157746
41.758685
54.023474
66.872300
81.473239
93.446009
105.126761
117.391549
129.948357
142.505164
153.893897
166.450704
176.671362
191.564319
207.333333
218.722066
228.942723
237.411268
248.215962
256.100469
264.276995
272.745540
280.046009
287.346479
295.230986
300.195305
303.991549
306.911737
307.787793
307.787793
309.539906
308.663850
308.663850
307.787793
306.911737
305.743662
304.283568
301.363380
298.151174
292.894836
289.098592
282.382160
276.249765
268.365258
258.728638
249.968075
241.499531
229.234742
217.261972
204.413146
190.396244
175.795305
161.486385
147.761502
133.744601
115.931455
98.994366
81.473239
66.872300
51.979343
35.334272
20.149296
3.212207
-10.592242
-24.715232
-39.426679
-52.961211
-65.613056
-78.264901
-91.210974
-102.980132
-114.749290
-127.989593
-139.464522
-153.293283
-165.062441
-175.066225
-189.483444
-205.666036
-216.846736
-226.850520
-236.265847
-245.975402
-253.625355
-262.157994
-270.396405
-277.457900
-285.107852
-291.875118
-295.994324
-301.584674
-300.996216
-305.115421
-305.998108
-305.409650
-305.409650
-305.703879
-303.350047
-303.644276
-302.467360
-299.525071
-295.994324
-293.346263
-289.521287
-283.342479
-277.752129
-272.750237
-264.217597
-253.919584
-247.152318
-236.560076
-225.085147
-214.492904
-201.841060
-187.129612
-173.300851
-158.000946
-144.760643
-130.343425
-112.689688
-95.918638
-77.970672
-64.436140
-48.842006
-31.776727
-17.065279
-2.059603
12.556808
26.865728
41.758685
54.315493
67.164319
81.181221
92.861972
104.834742
115.931455
128.488263
141.337089
153.601878
165.866667
175.795305
191.564319
206.457277
219.014085
228.358685
238.287324
248.215962
256.100469
264.276995
273.621596
278.877934
286.470423
294.938967
301.363380
304.575587
306.619718
307.787793
309.539906
309.247887
309.247887
309.539906
308.371831
306.911737
305.159624
303.115493
301.947418
298.443192
292.894836
288.806573
282.382160
276.541784
267.489202
259.896714
250.260094
241.499531
229.818779
216.385915
204.413146
190.104225
176.379343
161.194366
148.053521
133.452582
115.347418
98.702347
81.765258
65.704225
50.811268
34.750235
20.149296
3.796244
-10.298013
-24.715232
-38.838221
-51.195837
-65.024598
-78.559130
-91.799432
-104.451277
-113.572375
-127.106906
-140.052980
-151.822138
-165.650899
-174.477767
-190.071902
-205.077578
-217.140965
-226.850520
-235.971618
-245.681173
-254.213813
-261.275307
-268.925260
-277.163671
-284.225166
-292.169347
-297.465468
-301.290445
-302.761589
-304.821192
-305.998108
-305.998108
-306.292337
-305.998108
-305.703879
-304.526963
-301.878903
-300.113529
-297.759697
-294.523179
-288.932829
-284.225166
-277.457900
-270.984863
-263.040681
-254.802271
-245.975402
-236.265847
-225.379376
-214.198675
-200.958373
-187.129612
-174.183538
-157.706717
-144.172185
-130.049196
-112.689688
-94.447493
-77.676443
-62.376537
-48.842006
-32.365184
-16.476821
-0.882687
13.140845
27.741784
41.174648
54.607512
67.456338
79.721127
92.861972
104.542723
115.639437
127.612207
140.169014
153.893897
164.114554
176.963380
190.688263
207.041315
218.430047
227.482629
237.995305
246.171831
256.976526
264.276995
271.285446
280.338028
286.178404
294.354930
299.319249
303.699531
306.327700
308.079812
308.955869
308.371831
309.539906
308.371831
308.663850
306.911737
304.867606
303.407512
300.195305
298.151174
291.726761
288.514554
282.674178
275.665728
267.489202
259.020657
250.844131
240.623474
229.526761
217.553991
203.245070
190.980282
175.795305
160.902347
146.009390
131.116432
115.347418
96.658216
80.013146
65.120188
51.103286
36.502347
18.397183
3.504225
-11.769158
-24.715232
-38.838221
-52.372753
-65.907285
-79.441816
-92.682119
-103.862819
-115.926206
-126.812677
-140.935667
-153.881741
-164.768212
-175.948912
-189.189215
-205.371807
-216.846736
-226.556291
-235.677389
-245.975402
-254.213813
-263.040681
-269.219489
-275.986755
-284.225166
-289.815516
-299.525071
-302.173132
-303.938505
-305.115421
-304.526963
-306.586566
-305.703879
-305.409650
-304.821192
-302.467360
-302.173132
-300.996216
-298.642384
-294.228950
-289.521287
-283.930937
-278.634816
-271.279092
-263.923368
-253.919584
-246.563860
-236.560076
-225.673605
-213.904447
-202.135289
-187.423841
-172.418165
-158.295175
-144.172185
-130.931883
-113.278146
-95.624409
-78.264901
-62.964995
-49.136235
-31.776727
-16.771050
-0.882687
13.724883
26.865728
42.050704
53.731455
67.456338
80.597183
91.985915
105.126761
116.807512
129.072300
139.584977
153.893897
164.698592
176.087324
192.148357
207.333333
219.014085
228.650704
237.995305
247.923944
256.100469
265.737089
273.037559
280.922066
288.514554
295.523005
301.071362
306.035681
306.911737
308.663850
308.955869
309.539906
309.247887
308.955869
308.955869
307.495775
305.743662
303.407512
301.655399
298.735211
293.186854
286.470423
282.090141
275.957746
267.197183
259.020657
249.676056
239.455399
228.358685
216.385915
204.121127
190.104225
174.919249
160.318310
147.469484
131.700469
113.887324
96.950235
79.721127
65.412207
50.519249
36.502347
19.273239
4.088263
-11.769158
-24.715232
-38.838221
-52.078524
-65.613056
-79.441816
-93.859035
-104.157048
-115.043519
-127.989593
-141.818354
-153.293283
-165.356670
-175.360454
-190.366131
-205.371807
-217.140965
-227.144749
-236.854305
-245.386944
-253.919584
-262.157994
-267.748344
-277.163671
-283.930937
-293.052034
-296.877010
-302.467360
-303.350047
-304.821192
-305.409650
-306.292337
-305.703879
-305.998108
-305.703879
-303.644276
-300.701987
-299.525071
-298.053926
-293.934721
-289.815516
-284.519395
-279.223273
-272.161779
-263.629139
-255.979186
-246.269631
-235.971618
-225.967833
-213.904447
-201.252602
-187.423841
-172.712394
-158.883633
-144.466414
-129.166509
-112.101230
-92.976348
-77.087985
-64.730369
-48.547777
-33.542100
-16.476821
-0.882687
13.432864
28.325822
42.342723
53.731455
66.872300
79.429108
92.569953
104.834742
116.807512
127.904225
142.213146
153.893897
164.990610
176.087324
191.272300
206.457277
218.430047
229.234742
238.287324
247.047887
257.268545
264.276995
273.329577
280.630047
288.222535
294.354930
300.779343
305.451643
306.035681
307.495775
309.831925
309.247887
309.539906
308.371831
308.663850
307.203756
304.867606
303.699531
300.487324
297.567136
293.478873
288.222535
282.382160
275.957746
266.613146
257.852582
250.844131
241.207512
229.818779
217.261972
205.289202
190.104225
175.795305
162.070423
147.469484
133.744601
115.347418
96.950235
82.057277
65.704225
51.687324
35.334272
18.689202
3.504225
-11.180700
-24.715232
-38.543992
-52.078524
-64.730369
-77.970672
-91.210974
-102.097446
-114.160833
-127.106906
-138.876064
-152.116367
-163.591296
-173.889309
-190.660360
-204.489120
-217.729423
-226.262062
-235.971618
-245.092715
-253.331126
-261.569536
-269.807947
-275.398297
-283.048250
-290.698202
-295.994324
-300.407758
-304.232734
-305.409650
-305.409650
-305.703879
-305.703879
-304.232734
-304.232734
-303.350047
-301.584674
-300.701987
