-144.020134
-57.846596
7.300469
-159.525407
-197.990412
-209.023011
-223.037392
-231.386385
-241.524449
-251.364334
-260.309684
-267.764142
-274.622244
-280.883988
-288.338447
-295.494727
-300.563758
-303.545542
-304.738255
-304.141898
-303.843720
-305.036433
-300.563758
-300.861937
-297.581975
-292.512943
-289.829338
-285.654842
-280.287632
-269.851390
-262.993289
-254.942474
-243.611697
-231.982742
-218.266539
-201.568552
-184.870566
-169.067114
-151.474593
-130.005753
-113.009588
-93.627996
-73.053691
-58.144775
-41.148610
-26.537872
-6.261745
11.680751
26.281690
40.298592
53.147418
65.412207
76.800939
85.853521
97.242254
105.710798
110.383099
118.559624
127.904225
139.292958
145.425352
148.929577
160.610329
162.070423
178.423474
184.263850
194.484507
198.864789
217.261972
225.146479
239.455399
244.127700
253.764319
262.524883
271.285446
274.789671
282.382160
290.266667
292.894836
299.319249
303.115493
305.451643
304.575587
308.663850
310.123944
311.000000
310.415962
309.539906
309.247887
306.911737
304.575587
302.823474
299.611268
298.735211
292.018779
283.550235
276.833803
271.285446
263.984977
252.596244
242.667606
234.783099
225.438498
212.589671
200.616901
183.095775
167.910798
154.477934
143.381221
127.028169
111.259155
94.906103
79.721127
61.907981
45.846948
29.493897
18.397183
2.336150
-14.610738
-25.941515
-41.148610
-57.846596
-67.984660
-81.402685
-93.926174
-106.151486
-118.674976
-135.372963
-150.281879
-162.507191
-168.172579
-181.590604
-205.146692
-211.706616
-230.491850
-232.877277
-247.189837
-251.066155
-263.887824
-267.764142
-277.604027
-283.269415
-291.618408
-299.967402
-304.440077
-308.018217
-307.720038
-309.807287
-305.930968
-306.229147
-311.000000
-309.807287
-309.509108
-309.509108
-302.352828
-301.160115
-299.669223
-291.916587
-287.742090
-278.200384
-270.447747
-263.589645
-252.557047
-241.524449
-231.684564
-217.670182
-204.848514
-192.325024
-176.819751
-160.419942
-144.318313
-127.620326
-110.922339
-93.926174
-73.948226
-56.653883
-41.446788
-23.556088
-9.541707
6.716432
23.069484
37.086385
50.227230
62.492019
74.756808
85.853521
96.658216
107.170892
119.143662
129.364319
138.708920
150.097653
162.654460
172.583099
182.219718
194.776526
208.209390
222.518310
232.738967
240.623474
249.968075
259.020657
267.489202
273.329577
279.753991
282.966197
293.478873
298.151174
302.823474
303.991549
308.079812
308.955869
309.247887
307.787793
309.247887
309.831925
304.867606
304.867606
302.531455
302.823474
297.859155
295.230986
290.266667
282.382160
278.001878
270.117371
261.064789
251.720188
242.959624
232.446948
221.642254
209.961502
195.944601
181.051643
168.202817
154.477934
141.337089
124.107981
108.046948
92.277934
75.340845
61.907981
46.138967
30.661972
14.308920
-0.000000
-14.610738
-29.817833
-43.235858
-57.846596
-71.860978
-84.384468
-97.504314
-109.729626
-121.358581
-135.074784
-149.387344
-162.805369
-172.645254
-186.361457
-201.270374
-215.582934
-225.124640
-235.262704
-244.506232
-253.749760
-263.291467
-270.447747
-278.796740
-286.847555
-292.214765
-297.581975
-303.545542
-305.930968
-308.614573
-310.105465
-308.614573
-310.701822
-311.000000
-308.614573
-307.421860
-304.440077
-305.036433
-301.160115
-296.687440
-294.302013
-288.338447
-280.585810
-274.025887
-265.676894
-254.942474
-245.997124
-236.157239
-223.633749
-212.004794
-197.990412
-183.081496
-168.470757
-151.474593
-137.758389
-121.954938
-104.064238
-86.173538
-70.370086
-53.075743
-36.675935
-20.574305
-5.367210
9.344601
24.821596
38.838498
51.979343
65.120188
77.092958
90.233803
101.622535
112.427230
123.231925
135.496714
147.469484
159.442254
171.123005
179.883568
193.024413
209.377465
220.766197
229.234742
237.411268
248.507981
256.684507
265.153052
272.161502
278.001878
283.842254
292.602817
298.443192
303.699531
304.575587
306.911737
308.955869
309.247887
308.079812
308.955869
308.371831
307.495775
304.867606
302.239437
300.487324
298.735211
294.062911
288.806573
282.382160
275.665728
270.409390
259.312676
251.136150
242.375587
231.278873
220.766197
208.501408
195.068545
181.343662
167.034742
153.893897
140.461033
124.400000
106.586854
91.401878
75.048826
60.739906
45.846948
29.493897
13.432864
-2.385427
-14.610738
-29.519655
-43.832215
-57.548418
-72.159156
-84.384468
-96.907958
-109.729626
-122.253116
-136.565676
-149.387344
-161.314477
-171.452541
-186.659636
-203.655801
-215.284756
-226.317354
-233.771812
-245.698945
-255.538830
-264.186002
-271.342282
-278.200384
-285.953020
-292.811122
-299.072867
-304.440077
-306.527325
-306.825503
-308.912752
-309.210930
-308.912752
-308.614573
-307.421860
-307.720038
-304.440077
-303.247363
-301.756472
-297.880153
-293.705657
-288.338447
-283.269415
-277.007670
-267.465964
-257.327900
-247.488015
-237.349952
-225.720997
-213.793864
-199.183126
-186.361457
-169.365292
-154.456376
-140.441994
-124.340364
-108.536913
-89.751678
-73.351870
-57.548418
-40.850431
-25.046980
-8.348993
6.716432
21.317371
33.874178
49.351174
61.907981
73.296714
87.021596
98.994366
111.551174
122.647887
134.620657
146.009390
158.566197
170.538967
180.175587
193.608451
207.917371
220.766197
228.942723
235.659155
247.047887
256.392488
264.569014
271.577465
278.293897
286.470423
292.310798
298.735211
303.699531
304.867606
306.911737
306.911737
309.539906
306.911737
307.787793
308.371831
306.619718
305.743662
302.531455
300.487324
296.691080
292.894836
287.638498
282.382160
276.249765
267.197183
259.896714
250.260094
240.915493
230.694836
219.306103
207.333333
193.608451
178.423474
164.698592
151.557746
137.248826
122.063850
103.666667
88.189671
73.004695
58.403756
42.926761
27.449765
10.220657
-3.279962
-18.188878
-32.799616
-46.515820
-59.933845
-74.544583
-88.558965
-98.995206
-112.711409
-125.831256
-138.652924
-152.369128
-163.699904
-174.136146
-189.045062
-203.655801
-218.266539
-226.019175
-236.455417
-246.295302
-255.240652
-265.378715
-271.938639
-279.989453
-286.549377
-293.407478
-300.265580
-305.036433
-306.527325
-308.018217
-310.701822
-310.105465
-308.912752
-307.720038
-308.614573
-307.421860
-305.334612
-302.949185
-301.160115
-296.985618
-293.705657
-287.443912
-281.182167
-274.025887
-266.273250
-257.327900
-248.382550
-237.648130
-226.019175
-215.582934
-201.270374
-187.554171
-171.452541
-155.350911
-141.932886
-126.725791
-108.835091
-91.540748
-74.544583
-58.144775
-42.639501
-27.730585
-10.436242
3.796244
19.273239
32.414085
47.307042
60.155869
71.836620
86.145540
98.118310
109.799061
120.603756
133.452582
145.717371
157.982160
168.786854
179.883568
193.024413
207.917371
219.598122
229.234742
235.659155
246.171831
254.932394
265.445070
273.037559
279.461972
286.470423
292.310798
300.195305
303.699531
305.159624
306.619718
308.079812
308.371831
308.371831
308.955869
308.955869
307.787793
304.575587
302.239437
301.071362
297.567136
294.354930
287.054460
282.382160
275.081690
267.197183
258.144601
249.092019
239.163380
229.234742
217.846009
205.289202
192.440376
177.839437
162.654460
150.097653
137.248826
119.143662
102.206573
85.561502
71.544601
56.067606
39.130516
26.281690
9.052582
-4.472675
-19.679770
-34.588686
-47.112176
-62.319271
-75.737296
-88.260786
-101.082454
-113.307766
-125.533078
-139.845638
-153.860019
-165.190796
-177.117929
-190.237776
-206.935762
-218.564717
-228.702780
-237.648130
-247.488015
-256.433365
-265.378715
-274.025887
-279.691275
-288.338447
-294.600192
-302.352828
-305.334612
-306.527325
-308.912752
-307.421860
-310.403643
-310.105465
-309.210930
-307.720038
-306.825503
-304.738255
-302.949185
-302.054650
-296.985618
-292.811122
-286.549377
-282.076702
-272.833174
-265.676894
-257.029722
-248.382550
-236.455417
-226.913710
-214.390221
-200.375839
-186.063279
-171.452541
-156.841802
-141.932886
-126.725791
-109.729626
-91.242570
-74.842761
-59.337488
-43.534036
-27.730585
-11.927133
3.212207
18.397183
32.706103
46.430986
60.447887
73.296714
85.269484
98.994366
110.675117
121.187793
133.160563
145.717371
158.274178
168.202817
179.883568
193.024413
207.625352
219.890141
228.650704
237.995305
247.339906
256.976526
266.613146
271.869484
281.798122
286.762441
294.354930
299.611268
303.407512
305.743662
307.787793
308.663850
308.663850
309.539906
310.123944
307.787793
307.203756
305.159624
302.823474
299.611268
297.567136
292.310798
288.514554
280.630047
274.497653
266.321127
258.144601
247.631925
238.871362
227.774648
217.846009
204.413146
190.688263
176.671362
162.070423
148.345540
134.620657
117.391549
100.162441
84.393427
68.624413
53.439437
37.670423
21.901408
5.840376
-7.156280
-22.661553
-36.377756
-50.690316
-64.406520
-76.930010
-91.242570
-101.976989
-115.693193
-127.322148
-140.740173
-153.860019
-166.085331
-177.416107
-193.219559
-207.830297
-219.161074
-230.193672
-238.244487
-248.382550
-258.818792
-266.273250
-273.131352
-280.287632
-288.338447
-295.494727
-300.265580
-305.036433
-306.527325
-309.509108
-310.105465
-310.105465
-309.807287
-310.701822
-309.807287
-308.018217
-306.229147
-303.545542
-299.669223
-297.283797
-293.407478
-286.251198
-280.287632
-274.025887
-264.782359
-255.240652
-246.295302
-236.157239
-226.317354
-214.390221
-199.481304
-186.361457
-170.856184
-156.543624
-141.634708
-126.129434
-109.729626
-90.646213
-73.948226
-58.442953
-42.043145
-27.134228
-10.436242
4.088263
18.981221
32.414085
46.430986
60.739906
73.004695
84.977465
98.702347
109.799061
122.063850
134.328638
147.177465
158.566197
169.078873
180.759624
194.192488
209.669484
220.766197
229.526761
239.163380
247.923944
257.560563
266.905164
273.037559
281.506103
289.098592
295.230986
302.239437
306.327700
307.787793
307.787793
308.955869
308.663850
310.123944
309.247887
307.495775
307.495775
303.407512
301.947418
299.903286
296.691080
291.142723
287.054460
279.753991
273.621596
266.029108
257.268545
247.339906
237.995305
227.482629
215.217840
202.661033
188.352113
174.919249
160.610329
147.177465
133.160563
114.763380
98.118310
82.349296
67.748357
51.979343
36.502347
19.857277
5.256338
-10.734420
-22.959732
-38.763183
-51.584851
-65.599233
-79.315436
-92.137105
-104.958773
-115.693193
-129.707574
-142.529243
-155.947267
-165.787152
-178.310642
-194.114094
-209.321189
-220.651965
-229.597315
-239.437200
-248.382550
-258.818792
-267.465964
-272.833174
-281.778523
-289.829338
-295.494727
-302.352828
-304.141898
-308.018217
-308.912752
-309.509108
-308.912752
-309.210930
-307.720038
-308.912752
-305.334612
-304.738255
-303.247363
-301.160115
-294.600192
-291.320230
-286.251198
-280.287632
-273.429530
-266.571429
-257.029722
-248.084372
-237.648130
-225.422819
-212.302972
-199.481304
-184.274209
-169.961649
-153.561841
-140.143816
-124.936721
-107.940556
-89.751678
-73.053691
-59.635666
-44.130393
-25.941515
-11.330777
4.672300
19.565258
32.414085
47.015023
60.739906
73.004695
86.437559
99.286385
109.215023
121.479812
133.452582
146.593427
159.442254
168.786854
181.927700
195.068545
209.669484
221.642254
228.942723
237.995305
248.507981
259.896714
267.197183
274.497653
280.630047
288.806573
295.815023
300.195305
305.451643
305.451643
306.911737
308.663850
310.123944
308.663850
309.247887
308.955869
306.619718
304.283568
302.239437
299.611268
295.815023
289.974648
287.054460
278.585915
273.913615
265.153052
256.976526
247.923944
237.119249
227.190610
215.217840
201.492958
188.936150
173.167136
159.442254
145.717371
131.700469
114.471362
96.658216
81.181221
65.996244
50.811268
33.582160
19.857277
2.044131
-11.927133
-24.748802
-39.657718
-53.970278
-66.791946
-81.104506
-93.627996
-105.555129
-117.780441
-130.303931
-143.721956
-156.841802
-169.663471
-179.801534
-195.903164
-212.004794
-222.441035
-231.386385
-240.331735
-250.469799
-260.906040
-267.167785
-274.920422
-280.883988
-288.338447
-295.792905
-301.160115
-304.440077
-307.421860
-308.912752
-310.403643
-309.210930
-308.912752
-308.018217
-307.123682
-306.229147
-304.738255
-302.054650
-298.476510
-296.389262
-290.127517
-285.356663
-277.604027
-271.342282
-262.993289
-254.942474
-244.804410
-235.859060
-223.931927
-210.812081
-196.201342
-183.379674
-168.768936
-154.158198
-139.547459
-125.234899
-107.344199
-90.049856
-73.650048
-57.846596
-41.744966
-26.239693
-10.138063
5.548357
19.857277
34.458216
47.891080
61.323944
73.880751
86.437559
98.118310
109.799061
122.063850
136.080751
147.469484
159.734272
169.662911
181.343662
196.528638
211.129577
222.226291
230.402817
240.039437
250.844131
259.604695
267.489202
274.789671
282.966197
289.390610
296.399061
300.779343
304.575587
306.619718
308.663850
308.663850
309.831925
310.123944
308.079812
308.955869
306.911737
304.575587
301.947418
299.903286
296.107042
290.850704
285.010329
279.461972
273.329577
263.692958
256.100469
245.879812
237.119249
225.730516
212.881690
200.616901
185.723944
170.830986
157.398122
144.257277
128.488263
111.843192
94.906103
77.384977
63.660094
48.475117
32.998122
17.229108
1.460094
-12.225312
-27.134228
-41.744966
-55.461170
-68.282838
-80.508150
-93.926174
-106.449664
-119.867689
-131.496644
-143.423778
-158.332694
-168.470757
-180.696069
-195.306807
-210.513902
-222.441035
-231.386385
-240.331735
-250.767977
-259.713327
-268.360499
-274.920422
-282.076702
-290.425695
-298.178332
-303.545542
-303.843720
-306.229147
-307.123682
-310.105465
-309.210930
-309.509108
-309.210930
-308.912752
-306.229147
-303.843720
-302.949185
-299.072867
-296.091083
-289.829338
-285.058485
-277.902205
-271.044104
-263.291467
-255.240652
-245.102589
-234.368169
-223.633749
-211.706616
-197.095877
-183.677852
-169.365292
-153.263663
-140.143816
-124.042186
-105.256951
-89.155321
-73.351870
-55.759348
-40.850431
-24.748802
-8.945350
5.256338
20.149296
33.874178
47.307042
61.615962
73.880751
87.897653
99.578404
111.551174
122.647887
134.912676
148.929577
161.194366
170.830986
182.803756
198.572770
212.881690
223.102347
230.694836
241.791549
252.596244
261.064789
267.781221
277.125822
281.798122
289.682629
297.275117
301.363380
303.407512
307.203756
307.787793
309.539906
308.079812
307.787793
308.955869
306.619718
305.159624
303.115493
301.363380
297.859155
295.230986
289.682629
285.010329
277.709859
268.949296
263.400939
254.056338
245.003756
235.075117
223.686385
212.297653
198.572770
185.723944
170.246948
155.061972
142.505164
126.736150
109.799061
93.153991
77.384977
62.784038
47.891080
31.246009
15.184977
-0.298178
-14.312560
-29.221477
-42.341323
-55.759348
-70.966443
-84.682646
-96.311601
-107.046021
-119.271333
-132.093001
-145.511026
-159.525407
-169.663471
-181.888782
-198.288591
-213.793864
-224.230105
-231.684564
-241.524449
-251.662512
-261.800575
-267.764142
-275.814957
-282.673058
-290.127517
-296.091083
-301.458293
-305.036433
-307.720038
-308.614573
-308.316395
-309.210930
-307.720038
-307.421860
-306.825503
-305.930968
-305.036433
-302.352828
-300.265580
-294.898370
-289.829338
-284.462128
-278.200384
-269.255034
-260.011505
-251.066155
-243.909875
-231.982742
-221.546500
-207.532119
-195.604986
-181.888782
-166.681687
-152.667306
-138.056568
-122.253116
-104.660594
-86.471716
-72.457335
-55.162991
-40.850431
-24.450623
-8.647172
7.008451
19.857277
36.502347
48.183099
62.200000
76.216901
88.189671
101.038498
111.843192
123.815962
136.372770
149.805634
161.486385
170.830986
183.387793
198.572770
211.713615
222.810329
230.986854
241.499531
251.720188
261.064789
268.365258
275.957746
284.426291
289.974648
297.275117
302.531455
304.283568
308.371831
306.619718
308.371831
308.663850
308.079812
307.495775
307.495775
306.327700
302.823474
301.947418
299.319249
294.354930
289.390610
284.426291
278.585915
270.701408
262.524883
254.640376
245.587793
234.199061
223.102347
211.129577
197.988732
183.679812
169.078873
155.061972
142.213146
124.692019
107.170892
91.109859
75.340845
61.323944
44.386854
29.785915
12.848826
-0.596357
-15.505273
-30.116012
-44.428571
-59.039310
-71.860978
-84.980825
-96.609779
-109.133269
-122.551294
-134.478428
-147.300096
-161.016299
-170.259827
-183.081496
-199.481304
-213.197507
-224.230105
-231.684564
-243.611697
-253.451582
-261.800575
-271.342282
-275.516779
-283.865772
-292.214765
-296.985618
-303.247363
-306.527325
-307.720038
-308.614573
-309.807287
-308.614573
-308.614573
-309.210930
-307.123682
-305.334612
-302.352828
-301.160115
-298.774688
-294.600192
-288.934803
-284.163950
-277.007670
-269.851390
-261.502397
-252.258869
-243.015340
-232.877277
-220.353787
-208.724832
-195.008629
-180.397891
-165.190796
-150.580058
-137.460211
-121.060403
-102.275168
-85.279003
-70.370086
-53.672100
-38.465005
-22.661553
-7.454458
8.468545
23.361502
37.086385
51.103286
64.244131
76.800939
90.525822
102.498592
113.887324
125.568075
138.708920
150.681690
163.238498
171.999061
186.307981
201.492958
214.049765
225.730516
232.738967
243.251643
252.596244
262.816901
268.657277
276.833803
283.550235
290.850704
297.275117
302.823474
303.699531
307.787793
308.955869
307.787793
309.539906
308.663850
307.787793
308.371831
305.451643
302.531455
300.195305
299.319249
294.354930
289.682629
283.842254
278.293897
268.949296
261.940845
253.180282
243.543662
232.738967
222.518310
208.793427
195.944601
181.927700
168.786854
153.893897
139.000939
124.400000
106.586854
89.649765
74.464789
59.279812
44.386854
28.617840
12.264789
-2.683605
-17.294343
-32.501438
-45.024928
-59.039310
-72.159156
-86.173538
-98.398849
-110.027804
-123.147651
-136.267498
-149.387344
-161.910834
-172.347076
-184.572387
-200.375839
-215.881112
-225.124640
-234.069990
-244.506232
-252.855225
-261.800575
-268.956855
-274.920422
-284.760307
-290.723873
-298.476510
-302.651007
-304.738255
-306.527325
-308.018217
-307.421860
-309.210930
-306.825503
-307.123682
-305.930968
-303.843720
-302.949185
-301.160115
-297.880153
-294.003835
-288.040268
-283.269415
-277.007670
-268.360499
-260.607862
-253.749760
-242.717162
-232.579099
-220.353787
-208.128476
-195.008629
-178.608821
-163.699904
-149.685523
-135.671141
-119.569511
-100.784276
-85.875360
-67.984660
-53.970278
-36.974113
-20.574305
-4.770853
8.760563
23.361502
37.378404
51.395305
64.828169
77.969014
89.649765
102.206573
113.011268
125.860094
138.416901
151.265728
163.238498
172.291080
185.723944
200.616901
215.801878
225.146479
233.615023
244.419718
253.180282
263.108920
270.701408
276.833803
284.426291
292.602817
298.735211
303.115493
305.743662
306.327700
307.203756
308.955869
308.079812
307.787793
307.787793
307.495775
305.159624
303.991549
301.363380
299.319249
293.770892
289.390610
283.842254
278.001878
268.949296
259.896714
251.720188
242.375587
231.570892
220.474178
210.253521
195.652582
181.927700
165.574648
151.265728
139.584977
122.647887
106.002817
88.189671
73.004695
57.235681
42.634742
26.281690
10.804695
-4.174497
-17.592522
-33.097795
-46.515820
-59.933845
-72.457335
-86.769895
-98.398849
-111.816874
-124.042186
-136.863854
-150.281879
-162.507191
-172.347076
-186.063279
-202.164909
-215.881112
-225.720997
-234.368169
-243.909875
-253.153404
-262.993289
-269.851390
-277.604027
-283.567593
-290.723873
-297.581975
-302.651007
-304.738255
-308.316395
-308.912752
-310.105465
-308.614573
-308.614573
-307.421860
-306.229147
-305.334612
-302.054650
-299.967402
-298.178332
-294.898370
-287.742090
-282.971237
-275.814957
-268.062320
-259.116970
-250.767977
-241.226270
-231.982742
-217.670182
-206.637584
-193.219559
-177.416107
-164.296261
-149.685523
-134.180249
-117.184084
-101.082454
-83.788111
-68.581016
-52.181208
-36.675935
-21.468840
-4.770853
10.804695
22.777465
38.838498
51.979343
65.120188
78.261033
90.817840
103.374648
113.887324
127.028169
139.584977
152.433803
163.822535
174.043192
187.184038
202.369014
215.801878
225.730516
235.951174
245.003756
255.516432
263.984977
271.869484
279.461972
285.302347
293.770892
299.027230
303.699531
306.619718
306.327700
308.663850
309.247887
309.831925
308.663850
309.247887
308.079812
304.575587
304.575587
301.655399
298.443192
294.354930
289.974648
283.550235
278.293897
269.533333
260.480751
250.260094
241.499531
231.278873
220.182160
207.333333
193.900469
178.423474
164.698592
150.973709
136.664789
120.895775
103.666667
87.021596
72.420657
56.943662
40.882629
25.405634
9.344601
-5.367210
-19.381592
-34.886865
-48.603068
-62.319271
-75.439118
-87.366251
-99.889741
-113.009588
-124.340364
-138.056568
-150.878236
-162.507191
-172.048897
-187.852349
-204.848514
-216.179291
-226.317354
-234.964525
-245.698945
-254.346117
-263.887824
-271.640460
-277.305849
-284.462128
-292.811122
-299.371045
-303.247363
-304.738255
-307.720038
-309.210930
-308.018217
-308.018217
-308.018217
-306.527325
-306.527325
-303.843720
-302.352828
-300.265580
-298.178332
-293.109300
-286.847555
-280.287632
-275.516779
-266.869607
-258.222435
-248.382550
-240.629914
-229.000959
-217.073826
-205.146692
-190.535954
-177.117929
-163.401726
-148.194631
-134.776606
-116.885906
-98.398849
-82.297220
-67.388303
-50.093960
-36.377756
-17.890700
-3.578140
11.680751
25.989671
39.130516
52.855399
66.580282
79.137089
94.322066
104.542723
116.807512
127.320188
140.461033
153.017840
165.282629
174.627230
188.936150
204.413146
217.553991
226.606573
235.075117
245.587793
256.392488
265.153052
271.869484
278.293897
286.762441
294.062911
299.319249
304.575587
306.619718
306.619718
308.955869
309.539906
309.247887
308.371831
308.079812
307.495775
305.451643
302.239437
301.363380
297.275117
293.770892
287.346479
282.966197
275.665728
268.365258
260.188732
251.428169
240.915493
230.402817
219.306103
206.165258
191.856338
177.839437
162.362441
149.221596
136.372770
117.975587
102.206573
85.561502
70.084507
55.775587
39.422535
24.237559
7.300469
-5.963567
-20.574305
-36.079578
-48.304890
-63.511985
-77.526366
-88.260786
-101.976989
-112.711409
-127.620326
-139.845638
-152.965484
-164.296261
-175.030681
-189.343241
-205.146692
-218.266539
-227.211889
-235.262704
-245.102589
-255.240652
-264.186002
-272.534995
-278.796740
-285.654842
-292.811122
-300.265580
-303.843720
-306.527325
-307.421860
-308.018217
-307.720038
-307.421860
-309.210930
-306.527325
-307.123682
-305.036433
-302.949185
-298.774688
-298.476510
-292.512943
-286.549377
-279.989453
-273.131352
-264.186002
-256.135187
-248.382550
-239.139022
-227.808245
-216.477469
-202.761266
-189.641419
-176.223394
-161.016299
-146.703739
-132.093001
-115.395014
-96.907958
-79.315436
-65.301055
-48.901246
-33.992330
-17.294343
-1.192713
13.140845
27.157746
41.174648
55.191549
68.624413
80.889202
93.738028
105.126761
117.099531
128.196244
142.213146
153.601878
165.574648
176.379343
190.980282
206.165258
217.846009
228.066667
236.535211
246.755869
256.392488
265.153052
273.329577
279.753991
287.638498
294.646948
300.779343
303.991549
306.619718
307.495775
307.495775
310.123944
308.955869
307.203756
308.663850
308.371831
306.619718
303.991549
302.239437
296.691080
292.894836
287.930516
282.382160
277.417840
268.073239
258.436620
249.676056
240.331455
229.526761
219.014085
205.873239
191.856338
178.131455
161.778404
149.513615
135.204695
117.975587
101.038498
84.685446
68.332394
54.023474
38.254460
22.777465
7.008451
-8.050815
-22.065197
-36.974113
-49.795781
-65.301055
-76.930010
-89.453500
-101.380633
-114.202301
-127.620326
-140.740173
-152.070949
-165.190796
-175.030681
-190.237776
-206.339406
-217.968360
-226.913710
-236.157239
-246.593480
-255.538830
-264.782359
-271.938639
-277.007670
-284.760307
-293.705657
-298.774688
-303.843720
-305.930968
-306.825503
-308.614573
-307.720038
-309.210930
-308.912752
-308.018217
-305.632790
-304.440077
-302.651007
-300.861937
-296.389262
-290.425695
-286.251198
-279.691275
-274.025887
-265.080537
-257.029722
-247.786194
-237.946309
-227.211889
-215.881112
-202.463087
-187.554171
-174.136146
-158.630872
-146.107383
-130.900288
-113.307766
-95.417066
-78.122723
-62.915628
-47.708533
-31.905081
-15.505273
1.168075
13.724883
28.033803
42.634742
55.191549
68.916432
80.889202
94.614085
106.586854
116.223474
129.656338
142.797183
156.522066
167.326761
177.255399
192.440376
209.377465
219.890141
229.526761
238.579343
249.384038
258.144601
266.905164
274.789671
280.046009
288.514554
296.107042
302.239437
305.159624
306.911737
308.663850
309.247887
310.123944
308.079812
308.663850
308.371831
306.619718
305.159624
302.531455
300.779343
298.443192
294.062911
287.346479
282.090141
275.373709
265.737089
257.560563
248.215962
238.287324
227.774648
216.969953
203.537089
190.688263
176.379343
160.610329
147.761502
132.284507
115.931455
99.870423
82.057277
67.164319
51.395305
36.502347
19.565258
4.964319
-11.032598
-25.046980
-38.465005
-53.075743
-66.195590
-78.122723
-91.540748
-104.362416
-115.693193
-129.111218
-141.038351
-154.158198
-165.787152
-176.521572
-191.728667
-206.041227
-219.161074
-228.702780
-238.244487
-248.084372
-257.029722
-265.378715
-272.534995
-279.393097
-287.443912
-295.494727
-300.563758
-304.141898
-306.229147
-307.720038
-309.210930
-309.807287
-308.614573
-308.316395
-307.123682
-305.632790
-303.843720
-303.247363
-299.967402
-296.985618
-291.618408
-285.654842
-279.691275
-274.622244
-263.887824
-256.135187
-246.891659
-237.349952
-225.124640
-212.899329
-201.866731
-188.150527
-173.539789
-157.736337
-143.423778
-128.813039
-112.115053
-93.926174
-78.719080
-61.722915
-46.217641
-30.414190
-14.312560
0.292019
15.476995
29.493897
43.218779
57.235681
71.252582
83.809390
96.366197
107.170892
120.019718
131.992488
144.841315
156.814085
167.618779
179.007512
193.316432
208.209390
219.598122
228.942723
238.287324
248.215962
259.020657
268.365258
274.789671
282.674178
289.390610
295.523005
301.655399
304.575587
307.787793
309.539906
309.247887
310.415962
310.707981
309.247887
308.079812
308.371831
306.035681
303.407512
301.655399
297.275117
292.310798
288.222535
281.798122
274.497653
267.781221
257.852582
249.092019
238.579343
227.482629
215.801878
202.369014
188.352113
174.919249
159.150235
146.593427
131.408451
112.427230
97.242254
81.181221
63.952113
50.227230
33.874178
18.981221
2.336150
-11.032598
-25.941515
-40.552253
-52.479386
-67.984660
-79.911793
-92.137105
-103.766059
-117.780441
-130.900288
-142.231064
-155.350911
-166.979866
-178.906999
-194.114094
-209.321189
-219.757430
-228.702780
-238.542665
-248.680729
-257.924257
-267.465964
-272.534995
-280.585810
-287.145733
-294.898370
-300.563758
-302.949185
-307.123682
-308.018217
-308.316395
-309.509108
-309.807287
-307.421860
-308.316395
-307.421860
-304.141898
-302.054650
-299.669223
-296.091083
-291.022052
-284.760307
-279.094919
-272.833174
-263.887824
-255.538830
-246.891659
-237.051774
-226.019175
-213.495686
-200.077661
-186.659636
-171.452541
-157.438159
-143.423778
-127.918504
-110.027804
-91.838926
-76.333653
-60.232023
-44.428571
-27.730585
-12.821668
2.336150
17.521127
31.246009
45.554930
57.819718
71.836620
84.977465
97.534272
110.091080
119.727700
133.452582
145.717371
158.566197
169.954930
180.467606
195.360563
210.837559
223.394366
231.278873
241.791549
250.552113
260.772770
268.365258
275.665728
282.382160
289.098592
297.275117
301.947418
305.743662
307.787793
308.371831
308.079812
308.079812
309.247887
308.663850
307.787793
306.619718
304.867606
303.115493
301.655399
299.027230
292.602817
286.470423
281.214085
274.789671
264.569014
256.684507
248.215962
238.287324
226.314554
215.509859
200.908920
186.892019
172.583099
157.982160
144.257277
130.240376
111.843192
95.490141
79.137089
65.120188
49.059155
33.582160
17.229108
2.044131
-13.716203
-26.836050
-41.148610
-55.162991
-67.388303
-81.700863
-94.522531
-106.449664
-118.376798
-131.198466
-144.020134
-157.736337
-169.365292
-180.397891
-195.604986
-210.513902
-222.142857
-230.790029
-239.735379
-249.873442
-259.713327
-266.869607
-274.622244
-280.883988
-288.934803
-296.091083
-302.054650
-303.843720
-305.930968
-307.720038
-308.018217
-307.720038
-306.825503
-306.527325
-306.825503
-305.930968
-303.843720
-301.160115
-298.476510
-295.196548
-290.425695
-284.462128
-277.305849
-271.342282
-262.098754
-254.047939
-246.295302
-234.368169
-223.335570
-210.215724
-197.990412
-183.677852
-170.259827
-155.350911
-140.143816
-124.936721
-108.238734
-89.155321
-74.842761
-58.442953
-43.832215
-27.730585
-10.734420
3.212207
18.689202
32.998122
45.554930
60.447887
72.420657
85.561502
98.410329
109.799061
120.895775
133.744601
145.717371
159.734272
169.078873
181.635681
195.944601
210.545540
223.102347
230.402817
241.207512
249.676056
260.480751
269.825352
275.957746
282.966197
290.850704
297.859155
303.407512
306.911737
307.495775
308.955869
309.831925
308.663850
309.247887
310.123944
307.495775
306.911737
304.575587
302.531455
300.779343
296.399061
291.726761
286.762441
278.877934
273.329577
262.816901
255.224413
246.171831
236.243192
225.146479
214.341784
201.200939
186.600000
172.583099
157.690141
143.673239
128.780282
110.967136
93.738028
78.261033
62.200000
46.723005
30.953991
15.769014
0.584038
-13.716203
-27.432407
-42.043145
-55.162991
-68.879195
-81.402685
-93.627996
-106.747843
-119.569511
-131.496644
-143.721956
-156.841802
-167.576222
-180.696069
-194.710451
-211.110259
-221.248322
-230.491850
-239.437200
-248.382550
-258.818792
-267.465964
-273.429530
-281.480345
-290.425695
-295.792905
-300.563758
-305.334612
-305.632790
-307.421860
-308.614573
-308.912752
-308.316395
-307.421860
-307.123682
-305.036433
-304.440077
-301.756472
-298.476510
-295.196548
-290.127517
-283.865772
-277.604027
-268.658677
-261.502397
-253.153404
-243.015340
-232.877277
-223.037392
-209.619367
-197.095877
-182.783317
-167.576222
-152.369128
-138.951103
-123.147651
-104.958773
-87.664430
-73.650048
-57.250240
-41.446788
-24.748802
-9.541707
7.008451
18.981221
35.042254
48.183099
61.615962
75.048826
87.021596
100.162441
111.551174
123.231925
136.080751
149.513615
161.486385
171.415023
183.387793
198.572770
213.757746
225.146479
232.738967
242.667606
252.304225
262.816901
269.241315
276.833803
284.718310
291.142723
297.859155
301.947418
306.911737
307.495775
308.079812
308.663850
309.831925
309.539906
307.787793
308.371831
306.035681
303.991549
302.823474
300.195305
297.275117
291.142723
286.470423
280.338028
272.453521
264.861033
256.100469
247.047887
235.951174
224.270423
212.297653
198.864789
184.555869
170.246948
154.769953
142.505164
126.736150
108.923005
92.569953
77.092958
61.615962
46.430986
30.077934
15.184977
-1.192713
-15.207095
-29.817833
-44.130393
-58.144775
-70.370086
-84.682646
-95.715244
-107.940556
-120.464046
-133.583893
-145.809204
-158.929051
-171.154362
-183.081496
-197.990412
-212.899329
-222.441035
-232.280920
-239.735379
-252.258869
-260.607862
-266.869607
-275.516779
-280.883988
-288.636625
-296.389262
-301.756472
-303.843720
-306.527325
-307.123682
-307.421860
-306.825503
-307.123682
-307.123682
-305.334612
-304.141898
-302.651007
-299.371045
-298.476510
-295.196548
-288.636625
-282.971237
-277.305849
-270.745925
-260.607862
-251.960690
-243.313519
-232.877277
-221.844679
-208.724832
-195.903164
-180.397891
-165.787152
-152.667306
-138.652924
-121.954938
-104.958773
-88.558965
-72.457335
-57.250240
-40.850431
-24.748802
-8.647172
7.300469
20.149296
35.626291
48.767136
62.492019
75.632864
86.729577
101.038498
113.595305
123.815962
137.248826
149.221596
161.194366
171.415023
183.387793
199.448826
213.757746
224.562441
233.030986
242.083568
253.472300
261.940845
270.993427
277.125822
285.302347
293.478873
298.735211
304.575587
306.035681
308.079812
310.123944
311.000000
309.831925
311.000000
309.539906
308.955869
307.203756
305.451643
302.531455
299.611268
295.815023
291.142723
285.010329
279.169953
271.285446
263.108920
254.932394
245.879812
235.075117
223.978404
209.669484
198.280751
183.679812
169.078873
155.061972
141.045070
124.692019
108.630986
90.525822
74.756808
60.155869
44.386854
29.201878
13.724883
-2.981783
-16.697987
-31.010547
-44.726750
-59.039310
-71.562800
-84.384468
-96.907958
-109.133269
-122.551294
-135.372963
-147.896453
-160.419942
-171.452541
-183.677852
-200.077661
-213.495686
-224.230105
-231.684564
-242.717162
-252.258869
-260.011505
-270.447747
-273.429530
-282.673058
-289.829338
-298.178332
-300.861937
-305.632790
-307.123682
-307.720038
-308.316395
-308.018217
-308.018217
-307.123682
-305.632790
-305.036433
-302.949185
-300.861937
-296.389262
-294.302013
-287.742090
-283.865772
-274.920422
-267.465964
-261.204219
-251.960690
-241.524449
-232.280920
-220.353787
-207.830297
-193.815916
-181.590604
-165.787152
-150.281879
-137.758389
-121.656759
-103.467881
-84.980825
-70.370086
-54.268456
-39.955896
-22.363375
-7.454458
8.176526
21.609390
37.670423
50.227230
64.244131
75.924883
90.233803
101.622535
113.011268
125.276056
137.248826
150.681690
162.654460
173.167136
185.139906
199.740845
214.633803
225.146479
235.075117
243.835681
253.472300
263.692958
270.993427
278.585915
285.594366
293.186854
299.027230
305.159624
305.743662
308.079812
309.539906
309.247887
311.000000
309.247887
308.663850
308.079812
306.327700
305.159624
302.531455
298.151174
295.815023
289.974648
285.302347
278.877934
271.869484
261.356808
252.012207
244.419718
233.030986
222.226291
211.129577
196.528638
182.219718
166.742723
152.725822
139.876995
123.815962
105.126761
89.649765
73.588732
58.403756
43.218779
26.573709
12.556808
-4.770853
-18.487057
-31.905081
-46.813998
-58.442953
-73.650048
-87.366251
-98.100671
-111.220518
-122.849473
-136.267498
-148.492809
-161.016299
