-311.000000
-221.149115
-102.893756
-226.945946
-303.753961
-298.246971
-294.479031
-288.392358
-282.885368
-275.929171
-267.813607
-258.828518
-250.133271
-240.278658
-229.264678
-211.294501
-206.367195
-193.614166
-179.411929
-166.369059
-152.746505
-139.703635
-123.762349
-106.661696
-89.561044
-74.779124
-59.997204
-47.244175
-28.404473
-14.492078
1.458724
14.295497
30.049719
46.095685
56.598499
71.185741
84.606004
94.525328
108.820826
120.490619
131.285178
146.164165
158.709193
168.336773
186.133208
201.887430
214.724203
225.810507
234.562852
243.315197
253.526266
259.069418
269.280488
275.407129
285.618199
294.078799
300.205441
304.289869
304.581614
305.456848
306.915572
305.748593
307.499062
301.372420
302.831144
300.205441
298.163227
296.996248
294.662289
289.994371
283.284240
276.282364
268.113508
259.361163
250.025328
241.272983
231.937148
215.599437
201.303940
188.175422
173.296435
152.874296
136.828330
120.198874
100.068480
86.648218
64.767355
45.512195
28.299250
13.128518
-3.188257
-16.810811
-32.172414
-45.505126
-60.576887
-66.373719
-79.996272
-92.749301
-99.125815
-111.009320
-121.733458
-131.298229
-137.384902
-149.268406
-156.804287
-172.455732
-177.962721
-188.397018
-199.121156
-209.265610
-221.438956
-233.612302
-240.568500
-250.712954
-255.930103
-265.205033
-269.262815
-272.740913
-282.305685
-290.711090
-293.029823
-298.246971
-297.667288
-299.116496
-304.333644
-303.753961
-303.174278
-304.333644
-304.333644
-304.043802
-298.536813
-297.377446
-294.768872
-290.711090
-285.204101
-286.943150
-277.668220
-270.712022
-263.755825
-253.031687
-244.046598
-235.641193
-224.337372
-215.352283
-202.599254
-188.397018
-173.615098
-160.572227
-145.790308
-133.037279
-116.516309
-99.415657
-83.474371
-71.301025
-55.939422
-41.447344
-24.346692
-9.274930
4.376173
19.255159
35.592871
46.970919
62.141651
75.561914
87.523452
99.484991
111.738274
124.575047
137.995310
151.999062
161.918386
172.421201
187.008443
204.513133
216.766417
226.685741
236.021576
246.816135
254.984991
264.320826
268.696998
279.491557
284.159475
292.620075
295.245779
305.456848
304.581614
306.623827
305.165103
307.790807
307.499062
306.332083
305.748593
303.414634
302.247655
303.706379
301.372420
295.829268
291.453096
284.159475
276.282364
270.155722
260.528143
249.733583
238.939024
226.393996
218.808630
205.388368
191.384615
176.213884
159.584428
143.830206
130.118199
114.363977
95.108818
77.895872
59.807692
43.469981
28.299250
12.836773
-3.478099
-17.680336
-32.462255
-44.925443
-58.837838
-69.851817
-81.155638
-93.618826
-104.632805
-115.067102
-126.950606
-137.384902
-148.978565
-163.180801
-171.006524
-181.730662
-194.483691
-209.265610
-218.830382
-229.264678
-237.959925
-245.785648
-253.321528
-260.277726
-267.523765
-272.740913
-280.566636
-286.653308
-291.870457
-297.667288
-299.116496
-301.145387
-303.174278
-301.145387
-302.594595
-302.304753
-300.855545
-298.246971
-297.957130
-297.087605
-295.348555
-290.711090
-285.783784
-282.305685
-274.479963
-270.132339
-261.437092
-251.292637
-244.336440
-232.742777
-224.047530
-211.584343
-200.860205
-188.107176
-174.484623
-160.862069
-146.369991
-133.906803
-117.095993
-100.285182
-84.923579
-68.982293
-53.620690
-40.287978
-22.027959
-7.825722
5.834897
20.422139
32.675422
48.429644
61.558161
75.270169
88.106942
99.776735
111.446529
124.575047
137.703565
151.707317
163.377111
173.296435
189.050657
204.221388
216.766417
226.977486
235.146341
244.773921
255.276735
265.487805
271.614447
278.908068
286.201689
294.078799
298.454972
303.706379
305.165103
305.165103
306.623827
308.082552
307.499062
306.332083
306.332083
306.040338
304.873358
301.664165
299.621951
296.121013
293.203565
285.909944
278.616323
272.489681
262.862101
252.651032
243.898687
232.520638
220.850844
208.305816
194.302064
180.881801
166.294559
149.373358
136.536585
121.074109
103.861163
85.189493
68.268293
53.972795
37.635084
22.464353
5.543152
-9.274930
-23.477167
-37.099720
-50.142591
-62.605778
-75.358807
-87.532153
-99.125815
-110.139795
-121.733458
-134.776328
-144.920783
-158.833178
-169.267474
-177.093197
-192.744641
-206.657036
-218.250699
-227.235788
-233.032619
-243.466915
-250.133271
-260.857409
-266.654240
-273.610438
-279.697111
-289.261883
-293.029823
-295.928239
-299.696179
-299.986021
-299.696179
-300.565704
-300.565704
-299.986021
-299.696179
-298.536813
-297.667288
-295.348555
-293.609506
-290.711090
-286.073625
-280.566636
-274.190121
-268.393290
-259.408201
-251.582479
-242.887232
-231.873253
-221.438956
-211.584343
-199.410997
-185.208760
-171.586207
-158.253495
-144.920783
-130.718546
-114.197577
-96.807083
-82.315005
-67.243243
-51.301957
-37.099720
-20.288910
-6.086673
8.168856
22.756098
37.635084
50.180113
64.767355
77.895872
90.732645
102.110694
115.239212
127.784240
140.912758
153.749531
164.835835
176.505629
191.384615
206.847092
219.100375
227.269231
236.896811
247.691370
257.902439
265.196060
273.364916
279.783302
287.368668
294.078799
299.330206
303.706379
306.040338
307.499062
309.249531
307.790807
308.082552
309.541276
306.332083
306.623827
304.581614
301.955910
299.621951
297.579737
291.161351
285.909944
279.783302
272.781426
264.029081
254.693246
244.773921
233.104128
221.434334
210.348030
195.760788
182.340525
166.878049
152.290807
138.287054
122.241088
104.736398
86.939962
70.602251
55.723265
39.093809
23.631332
7.877111
-6.956198
-22.027959
-34.780988
-48.983225
-62.315937
-74.199441
-88.111836
-99.125815
-111.299161
-121.443616
-133.327120
-146.659832
-157.963653
-168.977633
-178.542404
-193.324324
-207.526561
-218.540541
-226.366263
-234.191985
-244.046598
-252.741845
-259.408201
-268.683131
-273.610438
-280.276794
-287.522833
-292.450140
-297.667288
-299.986021
-301.435228
-302.014911
-302.014911
-299.986021
-301.725070
-302.304753
-298.246971
-297.377446
-296.507922
-294.479031
-291.290774
-285.204101
-281.146319
-273.900280
-266.654240
-258.828518
-249.263747
-240.568500
-231.003728
-220.859273
-208.396086
-197.382106
-185.208760
-169.557316
-155.355079
-142.891892
-128.979497
-111.589003
-95.357875
-78.836906
-63.475303
-48.983225
-33.911463
-18.549860
-2.898416
10.794559
25.673546
39.385553
52.805816
66.226079
78.771107
92.774859
105.611632
115.822702
128.659475
142.371482
154.333021
165.127580
177.964353
193.426829
208.597561
219.975610
228.727955
238.647280
247.691370
258.194184
266.946529
273.364916
281.533771
287.952158
294.954034
300.497186
304.289869
306.332083
307.790807
307.207317
307.499062
308.666041
309.249531
306.623827
306.040338
303.998124
301.372420
299.913696
296.412758
292.328330
286.785178
280.950281
272.781426
263.737336
254.401501
245.940901
234.271107
222.893058
211.223265
198.094747
184.090994
167.753283
154.041276
140.037523
124.866792
107.362101
89.857411
73.811445
57.473734
43.178236
26.548780
11.378049
-4.347623
-18.549860
-32.752097
-46.954334
-59.127679
-71.880708
-84.923579
-97.096925
-107.531221
-119.994408
-131.588071
-143.761417
-156.514445
-167.238583
-176.803355
-191.585275
-206.657036
-216.801491
-224.917055
-233.322460
-244.336440
-252.452004
-258.538677
-267.233924
-272.740913
-281.436160
-288.972041
-295.348555
-296.797763
-297.377446
-299.116496
-301.725070
-302.594595
-300.855545
-299.696179
-299.696179
-297.667288
-296.797763
-295.348555
-292.450140
-288.972041
-285.204101
-277.958062
-273.610438
-265.205033
-258.248835
-249.553588
-241.438024
-231.003728
-219.410065
-209.265610
-196.222740
-182.020503
-168.687791
-155.065238
-141.732526
-128.109972
-109.270270
-93.328984
-76.228332
-63.185461
-48.403541
-32.752097
-16.231128
-0.579683
12.253283
26.840525
40.552533
56.015009
67.393058
80.813321
93.358349
104.736398
118.156660
129.826454
142.954972
156.958724
167.753283
178.839587
194.302064
209.181051
219.975610
229.894934
240.106004
250.025328
260.528143
267.530019
275.698874
281.533771
289.702627
297.579737
300.788931
305.165103
305.456848
306.623827
308.957786
308.957786
308.374296
307.499062
309.541276
304.873358
303.414634
301.664165
299.913696
294.662289
290.286116
285.909944
280.658537
271.614447
264.320826
254.984991
245.649156
235.146341
223.476548
211.515009
198.094747
182.632270
167.461538
153.166041
139.162289
123.991557
105.903377
89.273921
72.644465
57.181989
42.303002
26.257036
9.335835
-4.927307
-19.709226
-32.462255
-48.113700
-60.287046
-73.329916
-86.662628
-97.966449
-109.560112
-121.733458
-133.906803
-145.500466
-157.963653
-167.528425
-178.832246
-193.034483
-207.526561
-216.511650
-225.496738
-235.061510
-244.046598
-253.611370
-261.437092
-267.523765
-274.479963
-282.015843
-288.682199
-293.899348
-297.087605
-298.246971
-299.116496
-301.435228
-302.884436
-299.696179
-300.275862
-300.565704
-297.957130
-297.087605
-294.768872
-292.739981
-289.551724
-282.885368
-279.697111
-273.610438
-265.494874
-257.089469
-247.814539
-239.119292
-229.264678
-219.410065
-206.946878
-194.483691
-181.730662
-166.658900
-153.036347
-140.573159
-126.950606
-107.821062
-91.589935
-77.387698
-61.156570
-46.664492
-29.853681
-15.071761
0.291745
14.878987
28.590994
43.178236
56.015009
69.727017
82.563790
95.108818
108.237336
118.740150
132.160413
145.872420
157.542214
169.212008
180.006567
194.593809
210.056285
222.017824
230.478424
240.106004
250.900563
260.236398
268.696998
275.115385
281.825516
288.243902
296.412758
301.372420
304.581614
306.332083
308.082552
308.957786
308.666041
308.666041
307.790807
307.207317
306.040338
303.414634
300.788931
299.038462
295.537523
292.036585
285.326454
279.783302
272.489681
262.862101
254.984991
245.357411
234.854597
223.768293
210.931520
196.636023
182.924015
168.045028
152.582552
139.745779
123.991557
106.778612
90.440901
73.519700
59.515947
42.886492
27.132270
10.211069
-3.478099
-17.970177
-31.592731
-45.215284
-59.997204
-71.880708
-83.764212
-96.227400
-108.110904
-119.994408
-131.298229
-143.761417
-157.094129
-167.818267
-177.672880
-192.164958
-206.077353
-216.801491
-223.467847
-234.191985
-242.597390
-252.741845
-261.437092
-266.654240
-274.479963
-282.305685
-287.812675
-292.739981
-296.218080
-298.246971
-299.986021
-300.565704
-300.855545
-299.986021
-299.696179
-299.116496
-297.377446
-295.638397
-294.189189
-291.290774
-288.392358
-281.726002
-277.958062
-270.422181
-264.625349
-256.219944
-246.655172
-239.119292
-228.974837
-217.960857
-206.077353
-194.193849
-181.150979
-166.369059
-152.166822
-139.703635
-124.631873
-107.241379
-91.300093
-74.489282
-60.287046
-45.794967
-29.273998
-13.332712
1.166979
14.878987
29.757974
43.469981
57.181989
70.018762
83.439024
94.817073
106.778612
119.031895
131.576923
144.705441
158.709193
168.628518
180.298311
196.052533
210.348030
222.893058
232.228893
240.397749
252.359287
261.695122
268.405253
276.865854
282.409006
290.286116
297.287992
301.664165
305.456848
307.790807
308.374296
308.082552
308.666041
308.957786
307.790807
306.623827
306.040338
303.706379
301.372420
299.913696
297.287992
291.453096
285.034709
279.491557
271.322702
263.153846
254.693246
244.190432
233.687617
221.726079
209.764540
196.636023
182.048780
166.294559
153.166041
139.162289
123.991557
106.195122
89.273921
72.936210
57.765478
42.886492
25.673546
9.627580
-4.057782
-18.839702
-32.752097
-46.084809
-60.866729
-72.750233
-85.503262
-97.676608
-110.429637
-120.863933
-133.037279
-144.630941
-157.383970
-167.818267
-177.962721
-192.744641
-206.367195
-217.671016
-225.496738
-234.191985
-244.046598
-255.640261
-261.437092
-269.262815
-274.479963
-283.465051
-288.102516
-293.899348
-297.087605
-297.957130
-301.145387
-301.145387
-301.145387
-301.145387
-300.855545
-299.116496
-297.957130
-296.507922
-293.029823
-289.261883
-288.392358
-282.885368
-277.958062
-272.161230
-263.465983
-255.640261
-245.785648
-237.090401
-228.684995
-217.381174
-204.917987
-193.034483
-179.122088
-165.209692
-150.137931
-138.544268
-122.602982
-106.082013
-89.271202
-73.619758
-57.678472
-43.186393
-28.114632
-11.593663
2.042214
16.921201
31.216698
45.220450
59.224203
70.893996
84.314259
97.734522
109.112570
121.365854
133.910882
147.039400
158.417448
168.628518
182.048780
196.052533
212.681989
222.893058
230.478424
241.856473
251.192308
260.528143
269.572233
275.990619
283.575985
291.453096
296.704503
302.831144
305.456848
307.207317
307.499062
308.374296
308.374296
306.915572
307.790807
306.040338
305.456848
303.706379
300.788931
298.454972
295.537523
289.702627
285.909944
277.449343
271.030957
261.695122
252.067542
243.898687
232.812383
221.142589
210.056285
194.885553
182.924015
166.586304
151.415572
138.870544
123.116323
105.903377
87.231707
72.644465
57.181989
42.011257
25.673546
9.919325
-4.057782
-19.419385
-34.780988
-46.954334
-60.866729
-73.619758
-85.793103
-97.966449
-109.560112
-122.892824
-134.486486
-147.239515
-158.543336
-168.977633
-179.991612
-194.483691
-208.685927
-219.120224
-227.235788
-236.510718
-245.205965
-254.770736
-262.886300
-267.523765
-275.929171
-282.885368
-289.841566
-294.189189
-296.507922
-299.406337
-299.406337
-300.855545
-300.275862
-299.696179
-299.986021
-297.957130
-297.667288
-295.058714
-293.029823
-291.290774
-287.522833
-281.726002
-277.668220
-270.132339
-262.886300
-254.191053
-245.205965
-236.220876
-226.366263
-216.221808
-203.468779
-191.005592
-177.672880
-162.311277
-148.978565
-136.225536
-120.863933
-104.053122
-86.372787
-71.590867
-56.229264
-41.447344
-25.506058
-10.144455
5.251407
18.379925
34.134146
47.846154
60.974672
74.978424
86.648218
99.193246
109.987805
123.116323
136.536585
148.206379
161.334897
171.254221
183.507505
199.261726
213.557223
224.643527
233.104128
242.148218
252.942777
262.278612
271.030957
277.157598
285.326454
293.203565
297.871482
304.873358
304.873358
308.374296
308.957786
308.082552
308.374296
306.915572
308.957786
306.040338
305.165103
304.581614
300.788931
299.038462
296.704503
290.286116
285.326454
277.741088
270.739212
261.403377
252.651032
243.315197
231.937148
220.850844
208.305816
196.052533
181.465291
166.878049
151.415572
137.995310
123.408068
105.611632
87.523452
72.936210
58.057223
42.886492
25.965291
10.211069
-4.927307
-18.839702
-33.621622
-46.374651
-60.866729
-73.040075
-85.793103
-97.386766
-108.400746
-121.443616
-132.457596
-146.659832
-157.673812
-166.369059
-179.122088
-195.063374
-208.685927
-217.671016
-225.786580
-235.641193
-246.365331
-253.031687
-262.596459
-268.972973
-275.929171
-284.334576
-289.551724
-295.348555
-297.087605
-299.406337
-300.275862
-301.435228
-298.536813
-298.536813
-300.275862
-299.116496
-298.826654
-295.348555
-292.739981
-290.131407
-287.232992
-282.015843
-276.508854
-269.552656
-262.016775
-252.741845
-244.626281
-234.771668
-223.757689
-213.613234
-202.599254
-190.136067
-177.383038
-163.180801
-146.949674
-134.776328
-118.545200
-102.603914
-85.793103
-69.851817
-55.939422
-40.287978
-24.346692
-8.695247
6.418386
20.422139
35.009381
47.554409
62.433396
74.978424
87.231707
99.193246
110.863039
123.699812
135.369606
148.498124
162.210131
171.254221
184.966229
200.720450
213.848968
224.643527
232.812383
244.773921
253.234522
261.986867
271.030957
277.157598
283.284240
292.620075
299.330206
303.706379
306.040338
306.040338
308.666041
309.833021
309.833021
309.833021
309.249531
307.499062
306.623827
303.998124
301.080675
296.996248
295.537523
290.869606
284.159475
278.616323
268.696998
261.111632
252.942777
243.023452
232.228893
220.850844
208.889306
194.010319
181.173546
166.586304
151.707317
138.870544
121.657598
104.736398
88.982176
72.352720
57.181989
41.719512
25.673546
9.044090
-4.057782
-19.709226
-32.752097
-46.954334
-59.707363
-73.619758
-85.213420
-97.096925
-108.980429
-121.443616
-133.037279
-146.369991
-157.094129
-166.948742
-179.701771
-195.063374
-207.526561
-217.381174
-226.366263
-237.090401
-245.495806
-254.191053
-262.016775
-268.972973
-275.929171
-284.334576
-290.421249
-293.899348
-295.638397
-297.957130
-300.565704
-300.275862
-300.855545
-299.116496
-298.826654
-297.377446
-296.507922
-294.768872
-291.000932
-289.841566
-288.102516
-279.697111
-275.349487
-268.103448
-262.016775
-252.452004
-244.046598
-234.771668
-224.917055
-214.482759
-202.019571
-188.397018
-173.904939
-159.992544
-147.529357
-133.327120
-117.385834
-99.415657
-84.054054
-68.112768
-53.330848
-38.259087
-21.158434
-6.666356
8.168856
22.172608
35.592871
51.347092
64.767355
77.020638
89.565666
101.818949
113.488743
125.158537
137.995310
150.540338
162.210131
173.004690
186.424953
202.470919
215.599437
226.102251
234.271107
244.190432
254.984991
264.612570
272.197936
280.366792
285.618199
293.787054
299.913696
303.414634
306.623827
308.082552
308.082552
308.957786
310.124765
309.833021
309.249531
307.207317
306.623827
302.831144
301.664165
299.913696
294.954034
289.702627
284.451220
277.741088
268.988743
261.111632
252.359287
243.315197
232.520638
221.434334
208.305816
194.302064
178.839587
163.960600
149.665103
137.411820
119.907129
102.402439
86.356473
71.477486
55.723265
39.677298
23.923077
7.877111
-6.666356
-19.999068
-34.491146
-47.823858
-62.605778
-74.199441
-87.821994
-100.575023
-111.299161
-122.602982
-135.066170
-148.109040
-159.123020
-169.267474
-182.310345
-197.382106
-209.555452
-219.410065
-227.525629
-238.249767
-245.785648
-255.640261
-261.726934
-269.842498
-277.668220
-283.175210
-289.261883
-293.609506
-297.087605
-299.986021
-298.826654
-299.986021
-300.275862
-299.116496
-298.826654
-297.957130
-296.507922
-294.189189
-292.739981
-290.711090
-285.783784
-280.276794
-273.900280
-267.813607
-260.857409
-252.452004
-243.466915
-234.481827
-223.757689
-213.613234
-201.729730
-188.107176
-174.774464
-159.412861
-146.080149
-133.037279
-115.646785
-98.256291
-83.474371
-66.953402
-51.301957
-37.099720
-22.027959
-5.506990
8.752345
23.047842
36.176360
50.180113
64.183865
76.437148
88.690432
102.402439
113.780488
126.033771
137.120075
150.540338
163.377111
173.004690
187.591932
201.887430
216.766417
227.269231
234.562852
244.773921
255.568480
264.320826
272.489681
280.366792
284.742964
292.328330
299.330206
302.831144
306.623827
308.082552
308.957786
308.374296
308.666041
308.666041
307.790807
307.790807
305.456848
303.414634
301.664165
297.871482
294.370544
289.410882
283.284240
278.032833
268.696998
259.069418
250.900563
240.689493
230.770169
219.392120
207.138837
193.426829
179.131332
163.668856
150.248593
136.828330
119.323640
101.527205
84.606004
70.018762
53.389306
39.677298
21.589118
7.293621
-7.246039
-21.448276
-35.650513
-50.432432
-63.475303
-75.648649
-88.111836
-101.154706
-112.168686
-123.182665
-135.935694
-148.398882
-160.572227
-169.557316
-183.469711
-199.410997
-210.424977
-221.438956
-227.815471
-238.539609
-248.684063
-257.379310
-262.886300
-269.842498
-277.958062
-284.334576
-291.000932
-295.348555
-298.246971
-299.406337
-299.116496
-301.145387
-298.536813
-298.536813
-300.275862
-297.957130
-297.087605
-295.638397
-293.319664
-289.841566
-285.783784
-280.856477
-275.929171
-268.683131
-259.698043
-251.292637
-242.887232
-233.322460
-221.149115
-211.294501
-198.831314
-186.078285
-173.035415
-159.123020
-144.630941
-130.718546
-114.487418
-97.966449
-82.315005
-66.953402
-50.432432
-37.099720
-19.419385
-5.217148
9.335835
23.923077
38.510319
51.347092
65.642589
77.604128
91.899625
102.402439
113.488743
125.742026
139.162289
152.290807
163.668856
174.463415
187.591932
204.513133
217.058161
227.852720
235.146341
245.649156
256.735460
265.196060
272.489681
279.783302
287.368668
294.370544
299.913696
303.998124
307.499062
307.790807
307.790807
309.249531
308.666041
308.082552
308.374296
306.332083
305.165103
303.122889
301.372420
297.871482
294.078799
289.994371
283.284240
276.282364
268.405253
258.194184
250.025328
239.814259
229.019700
218.225141
206.847092
192.259850
178.256098
163.960600
149.665103
135.077861
118.156660
100.651970
84.606004
68.560038
53.681051
38.510319
22.172608
7.001876
-7.825722
-22.027959
-36.230196
-49.273066
-63.185461
-75.938490
-87.532153
-99.995340
-111.299161
-123.762349
-135.066170
-148.978565
-159.992544
-169.557316
-184.339236
-198.831314
-210.424977
-220.279590
-228.105312
-238.829450
-248.104380
-256.799627
-263.755825
-270.422181
-277.958062
-284.914259
-291.290774
-294.189189
-297.377446
-299.406337
-299.696179
-300.275862
-298.826654
-299.696179
-299.406337
-297.957130
-296.797763
-294.479031
-291.290774
-289.261883
-285.204101
-279.117428
-274.479963
-266.654240
-259.987884
-250.133271
-241.148183
-233.322460
-222.308481
-210.424977
-198.251631
-184.339236
-171.006524
-156.514445
-143.471575
-129.269338
-112.748369
-96.807083
-79.416589
-65.794035
-49.852749
-33.331780
-19.129543
-2.318733
10.794559
25.673546
39.677298
52.222326
67.393058
80.521576
92.483114
103.861163
115.530957
127.784240
141.496248
153.166041
165.419325
174.463415
189.342402
205.971857
218.808630
228.144465
236.313321
245.940901
257.902439
266.071295
274.240150
280.075047
287.368668
294.370544
300.205441
303.122889
304.873358
310.124765
309.541276
309.249531
310.416510
309.541276
308.374296
307.499062
305.748593
303.706379
301.080675
299.038462
293.495310
288.827392
281.533771
275.698874
267.821764
258.485929
249.733583
240.397749
228.144465
217.933396
204.804878
190.217636
175.630394
160.751407
147.914634
134.202627
116.114447
100.068480
82.563790
67.101313
52.514071
37.051595
20.713884
4.376173
-8.985089
-23.477167
-37.679404
-51.012116
-64.634669
-76.808015
-89.561044
-101.154706
-112.748369
-126.081081
-137.674744
-149.848089
-162.311277
-172.165890
-184.918919
-200.570363
-211.294501
-221.728798
-228.974837
-239.988816
-248.973905
-256.509786
-265.205033
-271.581547
-278.537745
-285.783784
-291.290774
-295.348555
-297.667288
-298.246971
-299.406337
-299.986021
-301.145387
-299.406337
-299.116496
-298.536813
-295.638397
-293.029823
-291.580615
-289.261883
-284.334576
-279.117428
-273.030755
-266.944082
-258.538677
-250.423113
-241.727866
-232.452936
-222.018639
-209.845294
-198.251631
-183.759553
-170.136999
-155.934762
-142.891892
-127.820130
-111.589003
-95.647717
-79.126747
-63.185461
-49.562908
-32.172414
-17.100652
-1.159366
12.253283
26.840525
41.719512
54.848030
67.393058
80.813321
93.358349
105.611632
116.114447
129.534709
142.079737
154.624765
165.127580
176.213884
191.092871
206.263602
219.392120
228.727955
237.480300
248.566604
257.027205
266.363039
274.240150
280.658537
286.493433
294.954034
300.788931
303.122889
306.915572
309.541276
308.666041
309.833021
309.249531
309.541276
309.249531
308.957786
306.040338
303.998124
301.955910
296.412758
294.370544
286.785178
281.825516
275.115385
267.238274
258.194184
249.733583
239.522514
228.436210
217.641651
204.221388
189.342402
174.755159
159.000938
145.872420
134.202627
115.239212
97.734522
82.272045
65.934334
50.763602
35.009381
19.838649
4.376173
-10.144455
-24.636533
-37.969245
-51.591799
-66.083877
-78.547064
-91.300093
-102.024231
-114.197577
-127.530289
-139.703635
-150.717614
-162.311277
-172.745573
-186.657968
-202.019571
-213.323392
-221.438956
-230.134203
-240.568500
-249.843430
-259.408201
-264.915191
-273.030755
-278.537745
-286.073625
-291.290774
-294.479031
-297.957130
-299.986021
-299.696179
-299.986021
-301.145387
-299.116496
-299.116496
-299.116496
-297.087605
-294.768872
-291.870457
-288.682199
-285.204101
-278.247903
-273.320596
-265.784716
-259.118360
-250.133271
-240.568500
-231.293569
-220.279590
-209.265610
-196.512582
-182.600186
-167.818267
-154.485555
-141.442684
-127.530289
-109.560112
-91.879776
-76.808015
-61.446412
-46.664492
-30.723206
-14.202237
0.291745
14.587242
29.174484
43.178236
56.890244
69.727017
82.855535
95.108818
106.486867
118.740150
131.868668
144.413696
156.083490
167.461538
179.423077
192.551595
207.722326
219.975610
229.311445
238.355535
248.858349
258.777674
266.946529
274.823640
281.825516
288.243902
295.245779
301.080675
304.873358
306.332083
307.207317
308.082552
308.957786
309.249531
307.790807
306.915572
308.082552
305.165103
302.539400
301.080675
297.871482
294.370544
287.368668
282.700750
274.531895
266.071295
258.485929
248.858349
239.814259
228.144465
216.182927
203.637899
189.050657
174.463415
159.876173
146.747655
132.743902
113.780488
98.026266
82.272045
66.517824
51.638837
34.425891
20.422139
3.500938
-10.724138
-23.767008
-38.548928
-51.301957
-64.634669
-78.257223
-89.271202
-101.444548
-113.328052
-125.791240
-138.834110
-150.427773
-162.311277
-172.745573
-186.078285
-201.150047
-212.743709
-222.888164
-231.003728
-241.438024
-250.133271
-257.669152
-265.494874
-270.712022
-278.827586
-285.493942
-291.870457
-295.928239
-297.667288
-299.406337
-300.275862
-299.406337
-299.986021
-299.986021
-298.536813
-297.957130
-296.507922
-293.029823
-291.000932
-288.682199
-282.305685
-278.537745
-271.581547
-266.074557
-256.799627
-248.684063
-240.568500
-231.293569
-221.438956
-207.236719
-195.063374
-182.020503
-167.818267
-153.036347
-139.993476
-126.950606
-108.690587
-91.589935
-76.808015
-59.997204
-46.664492
-30.143523
-15.361603
-0.000000
15.170732
28.299250
43.178236
55.431520
69.727017
83.439024
93.941839
106.778612
117.573171
131.285178
143.538462
156.666979
168.045028
177.964353
193.135084
207.430582
220.559099
229.311445
238.063790
249.441839
259.361163
266.946529
275.698874
281.242026
288.535647
295.537523
300.497186
304.581614
306.332083
308.082552
311.000000
310.124765
310.416510
310.708255
309.541276
308.374296
306.332083
303.414634
301.372420
298.454972
293.203565
287.660413
281.242026
274.240150
266.363039
257.027205
247.399625
237.772045
227.560976
215.015947
204.221388
189.342402
174.463415
159.876173
147.039400
131.285178
113.780488
96.859287
80.521576
65.059099
50.763602
34.425891
18.671670
2.333959
-11.883504
-25.506058
-39.418453
-53.041007
-65.214352
-78.547064
-90.430568
-101.444548
-113.617894
-126.660764
-138.254427
-151.876980
-162.601118
-172.745573
-186.368127
-202.889096
-213.613234
-222.018639
-231.293569
-242.597390
-250.423113
-257.669152
-265.205033
-273.030755
-278.827586
-286.653308
-292.450140
-294.768872
-296.797763
-299.696179
-299.986021
-299.116496
-299.986021
-299.696179
-298.826654
-298.826654
-295.638397
-293.899348
-291.000932
-287.232992
-283.175210
-276.508854
-271.581547
-263.465983
-255.930103
-246.945014
-239.409133
-229.264678
-219.410065
-206.367195
-193.904007
-179.701771
-167.238583
-152.166822
-138.834110
-124.631873
-106.661696
-90.720410
-73.909599
-59.707363
-45.505126
-29.563840
-12.463187
1.458724
16.921201
31.216698
44.345216
58.348968
71.477486
84.606004
96.859287
107.945591
119.615385
133.035647
145.580675
158.709193
168.628518
180.006567
194.885553
209.181051
221.434334
230.186679
238.647280
249.441839
259.361163
267.821764
275.698874
282.700750
290.577861
297.579737
302.247655
306.332083
306.332083
306.623827
309.249531
309.833021
309.541276
309.833021
309.833021
307.207317
305.165103
303.998124
300.205441
296.996248
292.328330
288.243902
280.658537
274.531895
264.029081
256.151970
248.566604
236.313321
225.227017
214.724203
201.012195
187.883677
173.296435
157.542214
144.121951
130.701689
112.905253
95.984053
78.479362
64.183865
49.013133
32.675422
15.754221
1.750469
-13.332712
-26.955266
-41.157502
-53.910531
-66.953402
-80.575955
-92.749301
-104.922647
-117.675676
-129.269338
-139.993476
-154.195713
-164.050326
-174.194781
-189.266542
-204.628145
-215.642125
-224.047530
-231.583411
-242.597390
-250.712954
-260.277726
-265.494874
-274.769804
-280.566636
-287.522833
-292.450140
-295.348555
-297.667288
-299.696179
-300.275862
-300.855545
-299.406337
-299.986021
-299.696179
-297.377446
-296.797763
-294.189189
-291.290774
-286.943150
-282.015843
-277.668220
-271.001864
-264.045666
-256.219944
-247.524697
-237.959925
-227.815471
-216.801491
-206.367195
-193.034483
-179.991612
-165.499534
-150.427773
-137.674744
-124.052190
-105.792171
-88.691519
-74.199441
-57.678472
-43.476235
-27.534949
-13.042870
2.625704
17.212946
32.383677
45.220450
58.057223
73.519700
84.897749
95.692308
109.112570
120.782364
134.202627
146.164165
158.417448
169.212008
181.173546
196.052533
210.931520
223.184803
232.228893
240.981238
251.775797
261.403377
268.988743
276.865854
282.992495
289.702627
296.996248
302.247655
306.332083
308.082552
307.790807
308.957786
308.666041
308.374296
308.957786
308.082552
306.332083
305.165103
303.414634
299.330206
297.287992
292.620075
287.076923
280.950281
273.656660
264.320826
254.984991
246.232645
235.438086
223.768293
214.140713
201.303940
185.549719
171.837711
155.500000
143.246717
128.659475
110.863039
93.941839
78.187617
62.433396
48.137899
30.633208
16.045966
-0.000000
-14.492078
-28.114632
-41.737185
-55.939422
-68.692451
-82.315005
-93.908667
-104.342964
-117.385834
-129.849021
-141.732526
-155.355079
-165.789376
-174.194781
-191.585275
-205.497670
-215.931966
-225.496738
-233.902144
-244.336440
-251.872321
-260.857409
-267.233924
-274.769804
-281.726002
-287.812675
-293.609506
-296.218080
-299.986021
-299.116496
-298.536813
-299.406337
-299.406337
-298.826654
-298.826654
-296.797763
-293.609506
-293.609506
-291.580615
-286.943150
-282.015843
-277.088537
-270.712022
-264.915191
-254.770736
-246.075489
-237.959925
-226.366263
-215.931966
-206.077353
-193.034483
-179.411929
-164.630009
-149.848089
-137.095061
-122.023299
-104.342964
-87.821994
-72.750233
-57.678472
-42.896552
-26.665424
-11.013979
4.376173
19.546904
32.383677
46.679174
60.682927
73.811445
86.356473
98.609756
109.404315
121.657598
133.327392
147.622889
160.167917
169.503752
181.465291
197.219512
210.639775
222.893058
232.228893
240.981238
252.651032
261.111632
268.405253
276.865854
282.409006
291.161351
296.996248
301.664165
303.706379
307.207317
309.249531
308.957786
309.541276
309.541276
308.666041
308.082552
307.790807
306.040338
302.831144
301.080675
295.537523
290.286116
286.493433
279.783302
273.656660
263.445591
256.735460
247.691370
237.188555
226.102251
212.973734
199.845216
185.841463
170.962477
155.791745
143.830206
127.784240
109.987805
94.817073
77.312383
61.849906
48.721388
30.924953
15.754221
-0.000000
-13.622554
-26.665424
-42.896552
-55.359739
-67.243243
-81.155638
-93.328984
-104.053122
-116.516309
-128.399814
-140.863001
-153.616030
-164.050326
-176.223672
-191.875116
-205.787512
-216.511650
-224.917055
-233.612302
-244.046598
-252.741845
-260.567568
-267.523765
-273.610438
-279.986952
-286.943150
-293.609506
-295.348555
-298.826654
-300.275862
-298.826654
-300.275862
-299.116496
-299.116496
-298.246971
-295.928239
-294.768872
-292.160298
-291.000932
-287.232992
-282.885368
-275.639329
-270.712022
-262.306617
-254.191053
-245.205965
-235.931034
-226.656104
-215.642125
-203.178938
-191.295433
-176.803355
-164.050326
-148.398882
-135.935694
-119.704567
-101.154706
-85.793103
-69.851817
-55.069897
-40.577819
-24.346692
-8.405405
6.418386
21.297373
35.009381
48.721388
62.433396
74.978424
89.273921
101.235460
112.613508
124.283302
135.661351
148.789869
161.626642
171.837711
183.507505
199.553471
213.265478
224.643527
232.812383
242.439962
252.651032
263.445591
269.863977
277.741088
284.742964
292.036585
299.038462
302.247655
305.748593
306.915572
308.374296
308.374296
308.082552
308.666041
308.374296
307.499062
307.207317
303.998124
301.372420
301.080675
297.287992
291.744841
286.201689
280.658537
273.364916
263.445591
254.693246
246.524390
235.438086
224.060038
212.390244
197.803002
184.382739
171.254221
155.208255
142.371482
125.450281
108.237336
92.483114
75.853659
60.682927
46.387430
28.882739
13.420263
-0.579683
-15.361603
-30.143523
-42.606710
-56.808947
-70.141659
-81.735322
-93.328984
-106.371855
-117.965517
-129.849021
-141.732526
-154.775396
-164.919851
-177.672880
-191.875116
-206.946878
-216.221808
-224.627213
-234.771668
-244.046598
-253.901212
-261.147251
-266.944082
-274.769804
-281.726002
-288.972041
-293.319664
-295.348555
-296.797763
-299.406337
-299.696179
-298.246971
-299.406337
-299.116496
-297.667288
-295.638397
-294.768872
-292.450140
-290.421249
-286.653308
-280.566636
-275.059646
-268.683131
-261.437092
-253.611370
-244.916123
-237.090401
-225.786580
-214.772600
-202.019571
-190.136067
-175.354147
-162.601118
-148.398882
-135.066170
-119.124884
-100.864865
-84.343896
-69.272134
-54.490214
-39.418453
-24.346692
-8.405405
6.710131
21.005629
33.842402
48.429644
63.016886
76.145403
88.982176
100.651970
112.613508
125.158537
137.120075
150.248593
162.793621
172.129456
184.966229
199.553471
214.724203
225.227017
233.687617
243.606942
254.401501
261.695122
271.030957
276.865854
284.742964
293.203565
299.621951
303.706379
307.207317
306.915572
308.666041
310.124765
309.249531
309.249531
309.541276
309.541276
307.207317
304.581614
303.414634
300.205441
295.829268
292.036585
285.618199
279.491557
271.322702
262.570356
254.109756
243.315197
234.271107
222.017824
210.931520
197.511257
184.090994
167.753283
153.749531
141.204503
124.866792
107.070356
89.565666
74.686679
59.224203
44.053471
27.424015
11.669794
-4.057782
-16.231128
-32.172414
-44.925443
-58.837838
-71.880708
-83.764212
-95.647717
-106.951538
-120.284250
-132.457596
-144.920783
-157.383970
-166.658900
-178.542404
-194.193849
-206.946878
-217.381174
-226.076421
-235.641193
-245.785648
-253.901212
-260.277726
-267.813607
-275.929171
-282.305685
-288.682199
-294.479031
-297.087605
-299.696179
-299.406337
-300.275862
-300.565704
-299.986021
-299.696179
-298.246971
