-203.768863
-184.461318
-184.758357
-172.579752
-151.489971
-134.558739
-118.221585
-100.696275
-84.656160
-68.913085
-54.061127
-37.129895
-21.980898
-8.020057
2.630639
12.276316
33.029135
49.105263
63.427632
77.457707
88.272556
98.795113
108.148496
127.147556
140.593045
153.746241
164.561090
178.298872
189.406015
206.359023
220.096805
227.404135
232.665414
245.526316
251.956767
265.402256
273.586466
275.340226
285.278195
296.093045
299.892857
300.185150
300.769737
300.769737
300.769737
302.815789
305.446429
303.108083
302.523496
305.446429
302.815789
298.431391
295.216165
288.493421
287.031955
278.555451
274.463346
263.063910
255.756579
246.695489
230.327068
218.343045
207.528195
194.375000
182.975564
164.853383
150.531015
132.701128
120.424812
103.179511
84.765038
67.812030
49.689850
35.367481
18.122180
2.922932
-11.881566
-26.733524
-39.803247
-54.061127
-66.536772
-77.527221
-91.488061
-103.369628
-114.954155
-125.647564
-136.935053
-148.222541
-159.807068
-171.094556
-181.787966
-193.075454
-208.818529
-219.808978
-229.017192
-239.710602
-247.136581
-256.047755
-264.067813
-270.899713
-278.919771
-284.860554
-289.910220
-299.415473
-302.979943
-307.138491
-308.623687
-310.405922
-308.623687
-310.405922
-311.000000
-308.029608
-309.514804
-308.920726
-306.544413
-304.465138
-300.306590
-298.821394
-295.553964
-287.533906
-281.890162
-274.761223
-266.741165
-253.671442
-245.354346
-236.146132
-223.967526
-210.897803
-199.610315
-185.649475
-170.500478
-155.648520
-142.875836
-127.132760
-109.310411
-94.458453
-78.121299
-62.081184
-47.229226
-32.377268
-16.040115
-2.079274
13.153195
26.890977
40.336466
55.535714
68.396617
80.672932
94.703008
105.810150
118.086466
130.947368
142.931391
156.084586
167.776316
182.098684
195.836466
208.989662
221.265977
229.157895
239.388158
249.326128
258.971805
267.156015
274.755639
278.847744
289.078008
294.339286
300.185150
302.523496
302.231203
305.446429
308.369361
307.784774
307.492481
307.784774
306.615602
306.031015
299.892857
299.892857
297.846805
293.754699
288.201128
283.524436
276.801692
266.279135
258.387218
247.280075
237.342105
227.404135
212.497180
199.928571
186.483083
171.576128
155.500000
140.885338
124.516917
109.317669
90.026316
73.365602
58.166353
41.505639
26.890977
9.353383
-4.158548
-18.713467
-32.674308
-46.338109
-59.110793
-71.586437
-85.844317
-96.537727
-109.013372
-121.489016
-133.667622
-144.361032
-157.430755
-169.906399
-179.708691
-193.075454
-207.333333
-219.808978
-230.799427
-236.443171
-246.839542
-255.156638
-262.582617
-268.820439
-278.622732
-282.781280
-292.286533
-297.633238
-303.276982
-305.653295
-306.544413
-310.108883
-309.217765
-309.217765
-307.138491
-309.217765
-308.326648
-305.950334
-303.574021
-302.682904
-300.306590
-295.553964
-292.286533
-286.048711
-280.702006
-270.899713
-261.988539
-254.265521
-244.463228
-232.284623
-221.888252
-209.709647
-197.828080
-184.164279
-168.718243
-153.866285
-141.390640
-124.162369
-107.231137
-92.082139
-76.636103
-60.001910
-44.852913
-27.921681
-13.366762
1.169173
16.368421
29.813910
42.382519
56.704887
69.273496
83.888158
95.579887
107.856203
120.424812
132.408835
146.146617
159.007519
168.068609
184.144737
198.467105
211.912594
222.727444
230.034774
241.726504
251.664474
261.602444
267.156015
274.171053
282.647556
288.785714
295.508459
300.185150
303.692669
305.738722
306.615602
306.907895
306.907895
306.323308
306.031015
305.154135
303.692669
300.769737
299.308271
297.262218
293.170113
287.908835
282.355263
276.509398
268.325188
258.094925
249.618421
238.803571
226.819549
214.250940
201.390038
187.944549
172.745301
156.084586
142.054511
127.147556
109.025376
92.949248
75.411654
61.673872
45.597744
29.813910
13.445489
-2.079274
-16.634193
-30.297994
-45.149952
-57.922636
-70.992359
-83.468004
-95.349570
-107.825215
-120.300860
-131.588348
-144.361032
-156.242598
-168.124164
-179.114613
-192.481375
-207.333333
-218.620821
-227.829035
-236.146132
-245.057307
-255.453677
-262.582617
-269.711557
-278.028653
-283.969436
-291.692455
-297.930277
-303.574021
-304.168099
-305.356256
-307.435530
-308.623687
-308.029608
-307.138491
-308.623687
-307.435530
-306.247373
-302.385864
-300.900669
-298.227316
-294.662846
-289.910220
-284.563515
-277.434575
-270.008596
-260.800382
-251.295129
-242.978032
-232.284623
-219.808978
-209.115568
-194.263610
-181.490926
-166.638968
-152.084050
-137.529131
-120.597899
-104.854823
-87.032474
-73.665712
-57.625597
-42.179561
-26.733524
-10.396371
2.922932
17.537594
31.275376
44.428571
59.043233
71.611842
83.595865
97.625940
109.025376
121.593985
134.747180
149.069549
159.884398
171.283835
185.313910
200.805451
214.250940
225.358083
234.126880
243.480263
252.249060
261.310150
269.786654
276.217105
282.939850
291.708647
297.554511
302.815789
303.108083
305.154135
307.200188
306.615602
306.615602
306.907895
306.615602
306.615602
304.861842
301.646617
298.723684
296.969925
293.170113
287.908835
283.524436
276.217105
268.032895
257.802632
249.618421
239.388158
227.111842
216.296992
201.390038
186.775376
173.329887
156.669173
142.346805
127.147556
109.609962
92.949248
75.703947
62.258459
47.059211
31.275376
14.030075
-0.297039
-15.148997
-29.406877
-43.961796
-57.031519
-69.210124
-82.576886
-93.567335
-108.716332
-119.409742
-131.291309
-144.063992
-156.242598
-168.421203
-179.411652
-192.184336
-208.224451
-218.026743
-229.017192
-237.928367
-245.948424
-256.047755
-262.879656
-272.087870
-278.622732
-283.375358
-291.989494
-298.821394
-302.979943
-305.356256
-307.435530
-309.514804
-308.326648
-308.623687
-307.435530
-307.732569
-305.653295
-306.247373
-302.682904
-301.791786
-298.821394
-295.851003
-288.722063
-283.078319
-277.137536
-269.711557
-259.315186
-250.701051
-242.383954
-231.096466
-220.106017
-206.739255
-194.560649
-178.223496
-164.856734
-150.598854
-136.638013
-118.815664
-101.587393
-85.844317
-71.289398
-55.843362
-39.209169
-23.466094
-8.317096
4.968985
19.291353
34.782895
46.766917
59.920113
75.119361
86.518797
100.548872
111.363722
123.640038
136.500940
148.484962
161.930451
170.991541
186.483083
203.143797
215.127820
225.065789
234.419173
244.064850
254.879699
262.771617
271.540414
277.970865
283.524436
292.877820
297.846805
301.062030
305.446429
305.446429
306.907895
306.907895
307.784774
306.615602
306.615602
305.446429
303.108083
302.231203
300.477444
297.554511
293.170113
287.908835
283.524436
275.340226
266.863722
258.679511
249.326128
237.634398
227.404135
215.712406
201.097744
187.067669
173.329887
156.376880
144.392857
127.147556
110.486842
92.072368
76.288534
60.796992
46.474624
30.983083
16.076128
0.292293
-15.148997
-29.109838
-43.070678
-56.734479
-70.101242
-81.982808
-95.052531
-107.825215
-118.815664
-130.994269
-142.875836
-157.133715
-169.312321
-178.223496
-192.481375
-207.630372
-219.214900
-227.531996
-237.928367
-245.057307
-256.047755
-263.770774
-270.602674
-278.919771
-286.048711
-292.286533
-298.227316
-302.979943
-305.653295
-308.326648
-307.732569
-308.623687
-308.029608
-309.514804
-307.732569
-306.841452
-303.574021
-302.979943
-301.494747
-298.821394
-293.474690
-289.019102
-282.187202
-275.652340
-267.038204
-258.721108
-249.809933
-240.304680
-229.314231
-218.620821
-205.848138
-191.887297
-176.738300
-163.074499
-149.113658
-133.370583
-115.548233
-98.617001
-82.873926
-68.021968
-53.170010
-37.426934
-21.386819
-6.237822
7.307331
22.506579
36.244361
49.689850
62.550752
75.996241
88.857143
100.841165
113.409774
125.393797
139.131579
150.823308
161.930451
174.499060
188.236842
203.728383
216.589286
226.819549
235.296053
244.357143
254.587406
263.356203
272.125000
279.432331
286.739662
292.000940
298.431391
303.108083
305.446429
306.907895
306.907895
307.784774
308.077068
307.784774
307.492481
306.031015
303.984962
302.231203
299.600564
297.846805
294.046992
288.785714
280.893797
275.047932
266.279135
258.094925
249.033835
238.803571
226.234962
214.543233
202.266917
187.652256
173.622180
156.961466
142.346805
128.024436
109.609962
93.241541
78.626880
62.843045
47.643797
30.690789
14.614662
0.292293
-15.148997
-28.812798
-42.773639
-55.546323
-69.804202
-83.170965
-95.349570
-107.231137
-119.409742
-131.291309
-143.172875
-155.648520
-169.015282
-177.035339
-192.778415
-207.630372
-217.135626
-229.611270
-236.146132
-246.542502
-255.156638
-264.067813
-270.602674
-278.919771
-286.642789
-291.395415
-297.930277
-305.059217
-303.574021
-307.435530
-307.435530
-308.623687
-307.732569
-306.841452
-307.138491
-305.653295
-304.168099
-302.385864
-299.118434
-297.039160
-292.880611
-289.019102
-282.781280
-275.058262
-267.335244
-255.750716
-249.215855
-238.819484
-227.531996
-215.947469
-202.580707
-190.105062
-176.441261
-160.995224
-147.034384
-131.885387
-114.954155
-98.022923
-81.388730
-66.833811
-49.902579
-34.753582
-18.713467
-3.267431
9.645677
24.260338
38.582707
52.028195
65.181391
79.211466
91.195489
102.594925
115.748120
126.855263
141.469925
153.161654
163.976504
177.129699
190.575188
207.528195
218.050752
227.696429
237.049812
247.572368
256.633459
265.109962
272.417293
277.970865
287.031955
294.339286
299.600564
302.815789
306.031015
306.031015
306.615602
308.369361
308.077068
308.077068
306.031015
305.738722
303.984962
301.938910
301.062030
297.846805
292.877820
286.447368
281.186090
275.047932
265.109962
257.802632
248.449248
236.465226
225.942669
214.250940
200.513158
185.606203
171.868421
156.669173
141.762218
125.978383
108.148496
92.656955
76.288534
61.966165
45.305451
29.521617
13.737782
-0.891117
-15.148997
-29.406877
-42.476600
-57.625597
-71.289398
-81.685769
-95.646609
-108.419293
-120.894938
-132.182426
-145.549188
-157.727794
-169.015282
-180.302770
-195.451767
-209.412607
-219.511939
-229.314231
-239.413563
-247.136581
-257.532951
-264.958930
-272.384909
-279.513849
-286.642789
-294.662846
-299.712512
-302.385864
-305.950334
-307.138491
-309.514804
-306.841452
-308.920726
-308.920726
-306.544413
-306.544413
-303.574021
-301.791786
-300.603629
-297.039160
-292.880611
-287.236867
-280.404967
-275.949379
-265.553009
-257.532951
-246.542502
-237.334288
-226.640879
-213.868195
-202.283668
-187.728749
-171.688634
-158.915950
-144.955110
-130.400191
-111.686724
-93.864374
-79.012416
-64.160458
-48.714422
-32.971347
-16.337154
-1.782235
11.691729
27.475564
40.044173
54.074248
66.642857
79.796053
92.949248
104.056391
116.040414
128.609023
141.469925
154.623120
165.730263
176.837406
193.498120
207.820489
220.096805
227.404135
237.342105
247.280075
257.802632
265.986842
273.878759
279.432331
288.785714
295.216165
299.892857
303.692669
305.446429
307.784774
308.953947
308.077068
308.661654
308.369361
306.615602
305.154135
304.861842
302.231203
300.185150
297.554511
291.416353
287.324248
279.432331
274.463346
265.986842
255.171992
246.110902
237.049812
224.773496
212.204887
198.467105
185.021617
170.406955
155.792293
141.469925
126.270677
106.979323
90.610902
76.288534
60.212406
44.428571
29.229323
13.153195
-2.079274
-16.931232
-31.486151
-44.258835
-58.516714
-71.883477
-84.359121
-96.834766
-108.716332
-120.003820
-132.776504
-146.143266
-158.024833
-167.530086
-180.302770
-194.263610
-210.006686
-221.591213
-228.720153
-237.928367
-247.433620
-259.018147
-266.444126
-272.087870
-280.107927
-286.345750
-294.365807
-298.821394
-305.059217
-304.762178
-307.435530
-306.841452
-307.138491
-308.326648
-305.950334
-306.841452
-306.247373
-305.059217
-302.088825
-300.900669
-296.445081
-291.692455
-286.345750
-278.325692
-275.058262
-264.067813
-254.859599
-245.651385
-237.631328
-225.155683
-211.788921
-200.501433
-185.946514
-171.985673
-158.024833
-142.578797
-126.835721
-109.310411
-92.973257
-76.933142
-61.190067
-46.932187
-30.297994
-13.366762
0.584586
13.737782
28.352444
41.797932
55.243421
68.981203
81.257519
94.703008
106.979323
117.501880
131.531955
142.931391
156.376880
165.730263
178.298872
194.375000
208.989662
220.389098
229.157895
239.388158
247.864662
259.264098
266.863722
273.294173
280.893797
288.201128
295.508459
301.938910
303.108083
304.569549
306.907895
307.200188
306.615602
308.077068
307.784774
308.077068
307.200188
304.569549
301.646617
299.015977
296.677632
291.416353
286.739662
281.770677
272.125000
264.233083
254.587406
246.695489
235.880639
223.019737
212.497180
197.590226
183.852444
169.237782
153.746241
140.593045
123.347744
107.271617
90.026316
73.950188
59.043233
43.843985
27.475564
13.153195
-1.782235
-16.040115
-31.486151
-44.852913
-58.219675
-71.289398
-85.250239
-96.537727
-109.904489
-120.894938
-134.558739
-146.737345
-157.727794
-169.609360
-181.787966
-195.748806
-211.788921
-220.997135
-229.017192
-240.007641
-248.918816
-260.206304
-266.147087
-274.167144
-280.999045
-287.533906
-294.662846
-300.306590
-302.979943
-306.544413
-307.435530
-308.029608
-308.920726
-306.841452
-307.435530
-306.247373
-304.762178
-302.385864
-300.900669
-299.118434
-296.148042
-291.395415
-285.751671
-277.434575
-272.087870
-263.770774
-253.374403
-245.057307
-234.363897
-223.670487
-211.491882
-197.531041
-184.164279
-168.421203
-155.351480
-141.093601
-125.350525
-106.934097
-91.488061
-75.744986
-58.813754
-44.258835
-26.436485
-12.178606
1.461466
16.076128
30.690789
43.843985
57.874060
71.319549
83.595865
96.456767
108.440789
119.547932
132.408835
145.854323
157.546053
168.653195
181.221805
196.128759
209.574248
220.681391
230.619361
239.680451
248.449248
260.725564
267.156015
275.047932
282.062970
287.908835
296.969925
301.062030
304.569549
305.738722
307.492481
307.784774
308.077068
308.369361
308.369361
307.784774
305.446429
303.692669
302.231203
300.185150
296.677632
292.585526
286.155075
280.016917
273.001880
263.940789
254.295113
244.357143
235.588346
223.312030
210.158835
196.421053
183.560150
167.191729
152.577068
139.716165
123.347744
104.640977
88.272556
73.365602
58.166353
42.967105
27.475564
11.107143
-3.267431
-18.416428
-32.971347
-46.932187
-60.595989
-72.774594
-86.141356
-98.022923
-109.904489
-122.083095
-134.558739
-147.925501
-160.401146
-171.688634
-182.679083
-197.828080
-212.085960
-222.185291
-230.502388
-240.898758
-250.404011
-259.612225
-266.147087
-273.276027
-280.999045
-288.425024
-294.662846
-300.603629
-303.276982
-304.465138
-306.544413
-306.841452
-307.138491
-307.435530
-308.029608
-307.138491
-304.762178
-302.682904
-301.197708
-299.118434
-295.553964
-290.504298
-283.969436
-277.137536
-271.493792
-261.988539
-252.780325
-243.869150
-232.284623
-223.076409
-210.006686
-197.234002
-183.570201
-167.827125
-152.678128
-139.311366
-122.677173
-105.151862
-88.814709
-74.556829
-58.813754
-42.476600
-26.436485
-10.693410
4.968985
17.537594
33.613722
45.890038
60.796992
73.073308
86.811090
98.210526
108.733083
122.763158
134.162594
146.731203
159.884398
168.945489
182.975564
198.467105
213.666353
223.896617
230.911654
241.141917
250.495301
260.433271
269.202068
276.217105
284.109023
289.662594
296.385338
301.938910
305.446429
306.907895
307.784774
308.077068
307.492481
308.661654
307.492481
307.492481
306.615602
304.861842
302.523496
299.600564
297.262218
291.416353
286.155075
279.724624
270.663534
263.940789
253.418233
244.649436
232.665414
221.850564
211.035714
196.128759
182.098684
166.899436
151.115602
138.254699
121.886278
104.056391
87.395677
72.488722
56.997180
41.797932
25.721805
10.522556
-3.861509
-19.010506
-33.268386
-47.229226
-60.298949
-73.665712
-87.923591
-97.725883
-111.092646
-123.568290
-135.449857
-149.410697
-160.104107
-171.391595
-184.461318
-199.907354
-214.165234
-223.967526
-231.690544
-240.898758
-252.186246
-260.503343
-267.335244
-274.761223
-281.296084
-288.722063
-294.365807
-301.494747
-304.465138
-305.653295
-306.841452
-306.247373
-307.732569
-307.732569
-306.841452
-306.544413
-304.168099
-303.574021
-300.900669
-298.524355
-295.256925
-290.207259
-283.672397
-277.137536
-269.711557
-262.582617
-252.186246
-241.789876
-231.987584
-220.997135
-209.115568
-194.560649
-181.490926
-166.638968
-150.895893
-136.340974
-121.489016
-103.072588
-88.220630
-72.180516
-56.437440
-40.397326
-25.545368
-9.208214
5.553571
18.999060
34.198308
47.059211
59.920113
72.781015
87.395677
99.379699
110.779135
124.224624
134.747180
149.069549
159.299812
171.283835
184.729323
199.928571
215.127820
223.604323
231.203947
242.018797
251.664474
262.187030
269.202068
276.801692
283.816729
292.000940
297.262218
303.692669
305.446429
306.031015
309.246241
308.661654
308.369361
308.077068
308.661654
306.323308
304.861842
304.569549
302.231203
299.600564
296.093045
291.124060
286.155075
278.555451
271.540414
262.187030
252.833647
243.187970
233.250000
220.681391
207.528195
194.375000
180.637218
165.145677
150.238722
136.500940
119.255639
102.302632
85.641917
70.150376
54.658835
40.044173
23.383459
8.476504
-6.237822
-18.713467
-34.159503
-47.526266
-60.595989
-75.150907
-87.032474
-99.805158
-112.280802
-123.865330
-136.638013
-148.816619
-161.589303
-172.282713
-185.352436
-201.392550
-214.462273
-223.967526
-232.581662
-243.275072
-251.889207
-261.394460
-267.632283
-274.167144
-281.890162
-289.910220
-297.336199
-301.197708
-304.465138
-306.841452
-306.841452
-309.514804
-308.920726
-308.029608
-306.544413
-305.653295
-304.465138
-303.574021
-301.494747
-297.336199
-294.365807
-289.019102
-283.672397
-276.543457
-268.523400
-260.503343
-250.701051
-241.492837
-231.393505
-219.808978
-207.630372
-193.966571
-179.411652
-163.965616
-150.895893
-136.638013
-118.518625
-101.290353
-83.468004
-68.913085
-54.061127
-38.021012
-21.386819
-6.534862
7.015038
22.214286
36.244361
49.397556
63.719925
75.703947
88.272556
100.256579
112.825188
124.224624
137.377820
149.361842
162.222744
170.699248
185.898496
201.097744
214.250940
225.650376
233.834586
243.187970
253.418233
263.356203
271.248120
277.970865
285.862782
291.416353
297.554511
302.231203
305.738722
307.492481
309.246241
308.953947
308.369361
308.953947
307.784774
308.077068
306.031015
304.277256
300.769737
299.015977
296.677632
289.954887
284.401316
277.970865
270.955827
260.725564
252.249060
241.726504
230.619361
220.973684
208.405075
193.205827
180.052632
164.561090
149.946429
135.331767
118.963346
100.548872
85.934211
71.611842
55.243421
39.167293
23.091165
7.307331
-5.940783
-21.386819
-36.238777
-50.199618
-62.675263
-75.447947
-90.299904
-102.181471
-113.765998
-126.241643
-137.232092
-151.192932
-162.183381
-173.767908
-187.134670
-201.689589
-216.838586
-225.749761
-233.175740
-242.978032
-252.186246
-261.691500
-268.820439
-275.058262
-283.375358
-289.613181
-296.148042
-302.682904
-304.465138
-306.247373
-306.247373
-308.326648
-308.623687
-307.138491
-305.059217
-306.544413
-305.059217
-303.871060
-302.088825
-297.633238
-293.771729
-289.316141
-283.969436
-276.840497
-267.632283
-259.612225
-249.512894
-240.601719
-229.314231
-218.026743
-205.254059
-191.887297
-177.926457
-160.995224
-148.222541
-134.855778
-116.736390
-99.211079
-82.873926
-68.021968
-52.872970
-36.832856
-19.307545
-5.049666
9.645677
23.968045
36.828947
50.274436
64.596805
77.750000
90.026316
102.594925
114.286654
125.978383
139.131579
150.823308
163.099624
174.499060
187.652256
204.020677
215.420113
226.527256
236.172932
244.064850
254.879699
263.940789
271.540414
278.555451
285.862782
292.585526
299.015977
303.984962
305.154135
308.077068
308.077068
308.953947
308.077068
308.369361
307.784774
307.200188
305.738722
303.692669
301.062030
298.431391
295.216165
289.078008
283.232143
277.970865
269.494361
260.433271
252.249060
241.141917
231.788534
219.804511
207.235902
192.621241
178.298872
162.515038
148.192669
134.747180
115.748120
99.379699
83.011278
67.519737
53.781955
37.413534
21.921992
6.138158
-8.317096
-21.386819
-37.129895
-50.496657
-63.566380
-77.527221
-89.705826
-101.587393
-115.251194
-126.835721
-140.202483
-153.272206
-163.668577
-174.659026
-188.619866
-202.580707
-216.244508
-224.858644
-234.957975
-244.166189
-253.968481
-262.879656
-268.820439
-277.434575
-285.157593
-291.692455
-297.930277
-300.603629
-303.276982
-305.653295
-306.544413
-308.029608
-305.653295
-306.247373
-307.138491
-305.653295
-304.168099
-302.088825
-301.197708
-298.227316
-291.989494
-287.533906
-281.890162
-274.761223
-267.929322
-257.235912
-248.324737
-239.413563
-227.829035
-217.729704
-204.659981
-190.402101
-176.441261
-160.104107
-146.737345
-132.182426
-114.954155
-97.428844
-80.794651
-66.833811
-49.902579
-35.050621
-19.010506
-2.079274
10.522556
24.844925
38.582707
52.905075
66.642857
78.334586
91.195489
103.471805
115.748120
128.024436
139.131579
153.161654
163.684211
175.668233
190.282895
204.605263
217.466165
227.696429
235.296053
245.234023
256.341165
263.940789
272.417293
278.263158
286.155075
293.170113
300.477444
301.938910
306.615602
308.661654
308.077068
309.830827
307.784774
309.830827
308.369361
308.077068
306.323308
303.108083
301.354323
299.015977
294.631579
289.954887
282.647556
277.386278
268.909774
259.264098
251.372180
239.972744
229.742481
217.758459
205.189850
190.282895
176.252820
162.222744
147.315789
132.116541
114.578947
97.625940
82.134398
67.519737
52.320489
35.659774
20.168233
4.676692
-10.693410
-24.060172
-38.912130
-51.090735
-64.754537
-78.715377
-91.191022
-104.260745
-116.736390
-127.726839
-141.093601
-153.569245
-165.153773
-174.064947
-190.402101
-205.551098
-216.838586
-226.937918
-236.146132
-244.760267
-254.265521
-263.473734
-271.196753
-278.919771
-284.860554
-292.286533
-295.851003
-302.682904
-304.762178
-306.841452
-306.841452
-308.029608
-307.435530
-307.435530
-307.138491
-305.653295
-304.168099
-302.088825
-299.415473
-297.336199
-292.583572
-286.939828
-280.404967
-274.761223
-266.741165
-256.047755
-248.027698
-236.740210
-227.829035
-216.244508
-201.095511
-188.916905
-174.956065
-159.212989
-144.658071
-129.509074
-111.983763
-93.567335
-77.824260
-63.863419
-48.714422
-31.486151
-15.446036
-0.000000
14.030075
26.598684
41.797932
55.243421
67.812030
79.796053
92.949248
105.810150
115.748120
129.485902
141.762218
155.207707
165.730263
177.421992
192.621241
206.651316
219.512218
228.865602
236.465226
246.695489
256.633459
264.525376
272.417293
279.724624
286.739662
294.923872
299.600564
303.400376
305.154135
307.784774
308.077068
308.661654
310.415414
309.538534
307.492481
307.200188
306.323308
304.277256
302.231203
298.139098
295.800752
289.078008
282.939850
275.632519
267.448308
258.971805
248.156955
239.972744
229.157895
216.296992
204.020677
189.406015
175.668233
160.468985
147.315789
132.116541
113.409774
97.625940
81.257519
66.350564
51.151316
34.782895
18.706767
3.507519
-11.287488
-26.733524
-40.100287
-52.278892
-66.833811
-79.309456
-92.676218
-103.963706
-115.845272
-128.320917
-140.202483
-154.460363
-164.262655
-176.441261
-191.293219
-206.739255
-218.323782
-228.126074
-235.552053
-245.651385
-257.235912
-264.661891
-270.008596
-278.622732
-283.969436
-292.583572
-297.633238
-303.276982
-304.762178
-306.841452
-305.950334
-307.732569
-308.029608
-305.950334
-305.950334
-305.059217
-302.682904
-301.197708
-300.009551
-296.148042
-291.989494
-286.345750
-280.702006
-273.870105
-265.255969
-255.750716
-246.245463
-236.443171
-226.640879
-212.680038
-200.204394
-186.243553
-171.985673
-157.430755
-143.172875
-128.914995
-111.092646
-93.864374
-77.230181
-61.487106
-47.823305
-30.297994
-13.960840
1.461466
14.322368
28.060150
41.505639
56.704887
68.981203
81.842105
94.410714
107.563910
117.501880
129.778195
143.223684
155.792293
166.899436
178.591165
192.621241
208.405075
220.973684
229.742481
237.926692
247.864662
257.802632
266.571429
273.878759
280.601504
287.324248
295.800752
300.477444
304.569549
306.031015
308.661654
308.953947
308.077068
308.077068
308.661654
308.369361
307.200188
304.861842
302.231203
301.354323
298.723684
294.046992
288.201128
282.355263
276.509398
267.740602
257.218045
247.864662
238.803571
226.527256
216.004699
202.266917
188.821429
174.791353
159.299812
143.808271
129.193609
111.656015
94.703008
78.919173
65.181391
49.982143
33.906015
17.829887
1.753759
-11.881566
-27.030564
-40.397326
-55.249284
-66.536772
-81.388730
-93.270296
-105.448902
-117.627507
-129.212034
-142.875836
-155.351480
-166.936008
-177.926457
-192.778415
-208.521490
-218.620821
-228.423114
-237.334288
-246.245463
-255.156638
-264.067813
-272.681948
-278.622732
-285.454632
-291.692455
-298.524355
-301.791786
-304.762178
-305.950334
-306.841452
-307.435530
-308.029608
-305.950334
-305.950334
-305.356256
-302.385864
-300.900669
-298.821394
-294.959885
-291.395415
-285.751671
-279.216810
-271.790831
-265.553009
-252.780325
-247.136581
-233.769819
-225.155683
-213.274117
-199.610315
-186.243553
-170.797517
-156.539637
-141.984718
-125.944604
-107.528176
-91.785100
-75.447947
-60.001910
-45.149952
-28.812798
-13.069723
2.338346
15.491541
30.398496
43.259398
56.997180
71.611842
83.011278
94.118421
107.856203
118.086466
132.116541
144.392857
156.376880
166.899436
179.175752
194.667293
209.281955
220.973684
230.619361
238.803571
249.910714
259.556391
267.448308
275.047932
281.478383
289.078008
297.262218
300.477444
304.277256
305.446429
308.077068
309.538534
309.538534
309.538534
308.369361
308.369361
307.784774
305.154135
303.108083
301.646617
298.139098
293.754699
287.908835
280.601504
273.878759
265.694549
257.218045
247.864662
236.757519
226.234962
215.127820
200.220865
187.067669
171.283835
156.669173
143.515977
127.439850
110.194549
93.826128
76.288534
63.135338
46.766917
30.983083
15.199248
-0.297039
-13.366762
-27.624642
-40.694365
-55.843362
-69.507163
-81.982808
-95.052531
-107.231137
-119.112703
-132.182426
-143.172875
-157.133715
-166.936008
-178.223496
-195.154728
-208.818529
-219.808978
-229.017192
-237.037249
-248.621777
-258.424069
-264.364852
-272.087870
-279.216810
-286.345750
-292.583572
-298.227316
-302.979943
-304.168099
-305.653295
-306.841452
-307.732569
-307.138491
-307.138491
-305.653295
-305.059217
-303.276982
-301.197708
-298.227316
-294.068768
-290.207259
-284.266476
-278.325692
-272.978988
-262.879656
-254.265521
-242.680993
-233.769819
-223.670487
-210.600764
-197.234002
-183.273161
-168.718243
-155.648520
-140.202483
-123.568290
-107.528176
-90.299904
-75.150907
-59.407832
-44.852913
-27.921681
-12.475645
2.338346
16.953008
30.690789
44.428571
58.750940
72.196429
84.765038
97.041353
108.440789
120.132519
132.993421
146.146617
158.422932
168.360902
180.637218
196.128759
211.912594
221.850564
229.742481
240.849624
250.495301
260.433271
267.448308
275.924812
282.647556
288.493421
295.508459
301.646617
303.400376
305.154135
308.369361
307.784774
309.538534
309.538534
310.123120
308.661654
305.738722
305.446429
304.277256
301.354323
297.554511
292.877820
287.031955
281.478383
274.171053
264.233083
257.218045
246.987782
236.172932
225.942669
212.789474
199.636278
186.483083
170.699248
155.792293
141.762218
126.270677
107.563910
90.318609
76.873120
61.381579
47.351504
31.567669
14.614662
-0.891117
-15.148997
-28.812798
-42.773639
-56.734479
-70.101242
-84.062082
-94.458453
-107.825215
-119.706781
-131.291309
-146.440306
-158.024833
-168.421203
-180.896848
-196.936963
-211.194842
-221.591213
-227.531996
-239.413563
-249.215855
-258.424069
-266.147087
-273.573066
-279.513849
-289.613181
-293.474690
-299.415473
-302.979943
-306.841452
-306.841452
-305.059217
-307.435530
-307.138491
-306.544413
-305.950334
-305.356256
-303.574021
-300.603629
-298.821394
-295.256925
-289.910220
-284.266476
-276.840497
-270.602674
-262.582617
-252.483286
-244.166189
-232.878701
-220.997135
-209.412607
-197.531041
-182.382044
-167.827125
-151.192932
-139.311366
-122.380134
-103.666667
-88.517670
-72.477555
-56.734479
-41.585482
-24.357211
-9.505253
4.968985
18.706767
32.444549
46.766917
60.504699
73.073308
85.934211
99.087406
110.194549
122.178571
134.747180
146.438910
159.884398
169.530075
182.390977
197.882519
211.912594
222.142857
231.788534
241.434211
250.787594
260.725564
268.909774
274.755639
282.647556
290.539474
297.554511
301.938910
305.446429
306.615602
308.077068
308.953947
308.369361
307.200188
308.661654
308.953947
307.200188
305.446429
302.815789
301.062030
298.139098
292.877820
287.616541
280.016917
273.001880
263.648496
255.756579
246.110902
235.003759
224.481203
211.328008
197.882519
183.852444
169.530075
154.623120
141.762218
124.809211
106.687030
89.734023
75.119361
59.335526
44.720865
27.767857
13.153195
-2.673352
-16.040115
-30.000955
-44.555874
-57.625597
-71.586437
-84.359121
-97.428844
-109.607450
-121.191977
-133.964661
-145.549188
-159.510029
-169.015282
-182.085005
-198.422159
-212.085960
-221.888252
-229.908309
-240.007641
-249.809933
-259.018147
-267.038204
-273.573066
-280.702006
-289.316141
-296.148042
-299.712512
-304.762178
-305.653295
-305.950334
-306.544413
-306.841452
-305.950334
-306.247373
-306.841452
-304.168099
-302.088825
-300.900669
-298.524355
-294.068768
-290.504298
-284.563515
-278.325692
-269.711557
-260.503343
-251.889207
-242.680993
-231.987584
-220.997135
-207.630372
-196.342884
-182.976122
-166.638968
-151.787011
-138.123209
-121.786055
-101.587393
-84.656160
-70.398281
-55.546323
-39.803247
-24.060172
-8.020057
6.430451
21.921992
34.490602
47.936090
61.381579
74.534774
86.811090
99.671992
111.948308
122.470865
136.500940
148.484962
160.468985
170.406955
183.267857
199.636278
213.081767
223.896617
232.957707
241.726504
251.664474
261.894737
270.078947
277.093985
283.524436
291.708647
298.139098
301.646617
305.154135
306.907895
308.953947
308.369361
309.538534
309.246241
308.953947
308.369361
307.492481
305.154135
303.108083
300.185150
296.677632
292.585526
285.570489
279.432331
272.709586
262.771617
253.418233
244.064850
234.126880
223.312030
209.866541
197.882519
182.683271
166.899436
152.284774
139.423872
123.640038
104.056391
88.272556
73.950188
57.874060
43.551692
26.306391
10.814850
-3.861509
-18.713467
-32.080229
-45.149952
-59.407832
-72.180516
-84.953200
-98.617001
-110.795606
-121.786055
-135.449857
-146.737345
-160.698185
-169.609360
-182.976122
-199.907354
-212.382999
-221.888252
-231.690544
-240.601719
-250.701051
-260.503343
-269.117479
-274.167144
-281.296084
-289.019102
-294.365807
-300.306590
-303.276982
-305.059217
-306.247373
-305.950334
-306.544413
-307.138491
-305.950334
-304.762178
-304.762178
-301.197708
-301.197708
-297.633238
-294.365807
-289.316141
-282.484241
-277.137536
-269.711557
-259.018147
-250.701051
-240.304680
-230.799427
-219.214900
-206.442216
-194.263610
-180.005731
-164.856734
-148.816619
-135.449857
-120.003820
-100.696275
-84.656160
-70.992359
-53.467049
-39.209169
-21.386819
-5.643744
7.891917
22.214286
36.536654
48.812970
63.719925
75.703947
88.272556
99.671992
113.117481
123.640038
137.377820
149.361842
161.638158
172.453008
185.898496
200.220865
213.666353
224.481203
234.126880
243.480263
253.125940
262.479323
271.832707
278.555451
285.278195
292.293233
297.846805
303.984962
305.446429
306.907895
308.077068
309.246241
311.000000
308.953947
308.953947
308.661654
306.323308
303.692669
302.523496
300.185150
296.969925
292.000940
285.862782
279.724624
271.248120
262.187030
254.295113
243.187970
233.542293
221.850564
208.112782
194.667293
180.929511
166.022556
151.115602
137.962406
120.424812
103.471805
86.226504
72.196429
57.581767
40.921053
25.429511
9.353383
-4.455587
-19.604585
-33.565425
-46.635148
-60.893028
-73.368672
-87.626552
-98.617001
-111.389685
-122.677173
-135.746896
-149.113658
-160.995224
-172.282713
-185.055396
-199.907354
-214.165234
-223.967526
-233.769819
-242.086915
-252.186246
-260.800382
-268.523400
-276.246418
-282.484241
-287.830946
-294.662846
-302.385864
-303.574021
-304.465138
-307.138491
-307.732569
-307.732569
-306.247373
-307.435530
-305.950334
-302.979943
-302.385864
-302.385864
-298.524355
-294.068768
-288.127985
-283.078319
-276.246418
-267.929322
-257.829990
-249.809933
-240.898758
-228.720153
-217.135626
-206.442216
-192.184336
-178.817574
-162.480420
-148.816619
-133.964661
-117.033429
-99.211079
-82.576886
-68.616046
-52.278892
-36.832856
-20.198663
-5.049666
9.937970
23.383459
37.705827
51.151316
64.596805
78.334586
90.026316
103.471805
114.871241
125.686090
138.839286
150.823308
163.099624
174.206767
187.359962
204.605263
216.004699
225.942669
235.296053
244.357143
254.587406
263.940789
270.663534
277.386278
283.816729
293.462406
299.015977
303.400376
305.154135
307.784774
306.907895
308.661654
309.538534
308.369361
308.369361
307.492481
307.492481
305.154135
302.523496
300.477444
295.800752
290.247180
284.693609
279.140038
271.248120
259.848684
253.418233
241.726504
232.373120
219.512218
207.235902
194.667293
180.344925
165.437970
150.823308
137.085526
118.378759
100.548872
85.057331
70.150376
55.535714
39.459586
24.260338
8.184211
-7.128940
-21.089780
-35.941738
-48.417383
-62.675263
-76.339064
-89.408787
-100.102197
-113.765998
-122.974212
-138.123209
-150.301815
-162.183381
-172.579752
-187.431710
-201.689589
-213.571156
-225.155683
-234.066858
-243.275072
-253.374403
-260.206304
-270.305635
-276.246418
-283.375358
-290.504298
-296.445081
-301.791786
-305.059217
-306.544413
-307.138491
-304.762178
-306.841452
-306.247373
-305.653295
-305.653295
-304.762178
-302.088825
-299.415473
-296.742120
-294.068768
-287.236867
-282.187202
-274.464183
-266.741165
-257.532951
-249.512894
-238.522445
-228.720153
-217.135626
-204.065903
-190.699140
-176.441261
