254.826905
240.198495
243.416745
196.605833
205.675447
191.632173
178.174036
162.667921
149.794920
130.777987
113.516463
98.302916
80.748824
70.216369
51.199436
34.230480
22.235183
4.095955
-7.135755
-20.515296
-38.057361
-52.328872
-63.924474
-79.682600
-93.359465
-105.252390
-116.550669
-131.714149
-143.012428
-157.581262
-165.311663
-178.393881
-192.665392
-213.775335
-219.721797
-233.993308
-245.886233
-252.130019
-258.373805
-269.374761
-273.537285
-283.646272
-292.268642
-299.107075
-297.620459
-301.485660
-306.837476
-303.269598
-304.458891
-308.324092
-304.756214
-302.080306
-304.161568
-301.782983
-297.025813
-298.512428
-294.052581
-292.565966
-287.511472
-279.483748
-269.969407
-265.212237
-253.616635
-244.102294
-232.209369
-219.127151
-208.126195
-193.260038
-182.853728
-168.582218
-148.364245
-132.903442
-124.281071
-106.739006
-83.845124
-68.384321
-50.544933
-38.652008
-18.434034
-5.946463
11.995296
25.453434
38.326435
53.247413
62.609595
74.897460
91.866416
103.569144
111.175917
119.660395
131.655691
145.991533
160.619944
172.030103
179.929445
194.850423
211.819379
219.426152
226.740357
235.809972
251.316087
258.630292
264.189087
269.455315
276.476952
287.594544
290.227658
297.834431
301.930386
306.904045
310.122295
305.441204
309.244591
311.000000
306.026341
308.366886
309.829727
307.781750
305.441204
302.515522
296.956726
294.616181
291.983067
284.961430
276.476952
270.918156
263.311383
253.656632
243.124177
231.421449
220.596425
207.430856
194.850423
179.929445
166.471308
151.550329
138.969897
122.000941
105.909690
89.233302
75.775165
61.146754
44.762935
28.964252
12.287865
-0.891969
-13.974187
-30.624283
-44.003824
-59.167304
-73.438815
-85.629063
-98.711281
-109.117591
-121.605163
-136.471319
-149.256214
-162.041109
-173.339388
-186.124283
-202.179732
-215.559273
-225.073614
-235.479924
-242.913002
-253.021989
-262.833652
-269.672084
-278.889101
-282.754302
-289.890057
-298.809751
-300.593690
-303.864245
-306.837476
-307.432122
-310.702677
-311.000000
-309.216061
-309.216061
-306.540153
-303.864245
-301.782983
-300.593690
-297.620459
-290.484704
-287.511472
-282.159656
-273.537285
-266.104207
-256.292543
-247.372849
-236.966539
-224.776291
-212.586042
-198.611855
-184.934990
-171.258126
-154.608031
-140.336520
-125.767686
-107.928298
-90.980880
-73.141491
-58.275335
-42.814532
-24.677820
-9.514340
5.558796
19.894638
34.523048
47.688617
59.683913
73.142051
86.307620
98.595484
109.420508
121.123236
132.825964
145.113829
156.523989
168.811853
179.636877
192.217310
208.308561
219.718721
228.495767
236.687676
246.049859
255.997178
265.066792
272.088429
277.647225
285.839135
291.983067
297.834431
302.515522
305.441204
306.611477
307.489182
307.196613
308.659454
306.318909
307.781750
306.026341
303.100659
302.808090
300.467545
298.126999
293.445908
288.179680
282.620884
276.184384
267.992474
260.093133
250.438382
241.368768
230.251176
218.841016
206.845720
192.509878
179.051740
164.423330
152.428034
137.214487
121.123236
103.569144
86.600188
71.094073
57.635936
41.837253
26.038570
9.362183
-4.757170
-18.434034
-31.813576
-45.787763
-60.356597
-74.628107
-87.115679
-99.900574
-111.496176
-123.983748
-136.471319
-151.337476
-163.230402
-174.826004
-190.584130
-204.558317
-217.640535
-227.154876
-236.074570
-245.886233
-255.103250
-263.130975
-271.158700
-278.889101
-287.511472
-293.160612
-298.512428
-304.458891
-304.756214
-307.134799
-307.729446
-308.026769
-306.242830
-306.242830
-307.432122
-305.648184
-305.053537
-302.080306
-300.296367
-297.025813
-291.673996
-287.214149
-279.781071
-275.321224
-265.509560
-256.887189
-246.480880
-236.966539
-226.262906
-212.586042
-200.693117
-185.529637
-169.771511
-156.689293
-140.633843
-126.362333
-108.225621
-90.386233
-74.628107
-58.275335
-44.003824
-27.948375
-12.487572
4.095955
19.016933
31.597366
45.055503
59.098777
72.849483
84.259643
97.132643
109.420508
120.830668
132.240828
144.528692
156.523989
168.519285
178.466604
192.509878
208.308561
218.548448
227.618062
236.980245
247.220132
255.997178
263.311383
271.503293
279.695202
286.131703
292.860771
300.174976
301.345249
306.611477
305.733772
306.318909
306.318909
307.196613
307.196613
307.781750
306.318909
302.808090
301.930386
300.174976
297.541863
292.568203
288.764817
281.743180
275.306679
267.114770
258.922860
249.560677
239.028222
229.373471
217.378175
204.797742
191.047037
178.174036
162.375353
149.209784
136.336783
118.197554
101.813735
86.600188
71.094073
55.295390
40.374412
23.990593
7.314205
-5.649140
-20.217973
-33.597514
-48.463671
-62.140535
-74.628107
-88.899618
-100.495220
-112.982792
-126.659656
-139.444551
-153.418738
-165.311663
-175.420650
-190.584130
-206.044933
-219.127151
-227.749522
-235.777247
-247.670172
-255.400574
-264.022945
-272.347992
-277.997132
-286.322180
-293.457935
-299.999044
-303.864245
-304.458891
-305.350860
-308.026769
-308.621415
-309.216061
-308.026769
-306.242830
-305.350860
-303.566922
-301.782983
-299.701721
-297.323136
-291.673996
-286.916826
-280.078394
-272.942639
-266.104207
-255.697897
-247.075526
-236.669216
-225.668260
-213.180688
-199.801147
-184.637667
-169.771511
-154.905354
-141.525813
-126.065010
-108.522945
-90.088910
-74.330784
-58.275335
-44.301147
-27.948375
-11.000956
4.681091
19.602070
32.767639
45.640640
59.976482
71.679210
84.552211
96.840075
108.835372
120.538100
131.655691
144.528692
157.986830
167.641580
179.344309
193.387582
208.893697
220.303857
228.495767
237.857949
246.927563
257.167451
265.066792
272.966134
281.158043
285.253998
294.031044
299.004704
301.345249
304.270931
305.733772
307.196613
308.366886
307.781750
307.781750
308.074318
306.318909
304.270931
303.978363
300.760113
296.956726
292.568203
286.131703
281.450611
274.428975
266.822201
257.752587
248.097836
238.443086
227.618062
215.622766
202.457197
189.584196
175.540922
161.790216
147.454374
133.703669
116.442145
99.765757
83.089370
67.875823
55.002822
37.156162
21.650047
6.729069
-7.730402
-22.596558
-38.354685
-50.544933
-64.519120
-77.601338
-89.791587
-101.089866
-114.172084
-127.551625
-140.633843
-154.608031
-165.608987
-176.015296
-192.368069
-209.315488
-218.532505
-228.938815
-236.074570
-248.264818
-258.373805
-264.914914
-272.050669
-279.186424
-287.511472
-294.349904
-300.593690
-303.864245
-306.242830
-306.242830
-306.540153
-307.729446
-306.242830
-306.837476
-307.134799
-305.945507
-305.350860
-302.674952
-300.593690
-296.431166
-291.971319
-285.727533
-279.781071
-272.645315
-265.806883
-256.589866
-247.372849
-235.182600
-225.965583
-212.883365
-198.314532
-184.637667
-170.068834
-155.202677
-141.525813
-126.065010
-106.739006
-90.980880
-72.844168
-58.572658
-43.111855
-26.461759
-11.595602
4.388523
17.846660
33.937912
45.640640
58.806209
72.264346
86.015052
98.010348
109.420508
120.538100
133.703669
145.991533
158.279398
169.104421
179.929445
193.972719
209.478833
219.718721
229.080903
238.443086
248.975541
258.922860
267.114770
272.966134
280.865475
286.716839
295.493885
299.589840
302.515522
305.148636
305.733772
306.318909
306.904045
306.026341
306.904045
307.489182
306.318909
303.978363
302.222954
300.174976
296.371590
292.860771
288.179680
279.987770
273.843838
265.359360
255.997178
247.805268
237.272813
225.862653
215.330198
202.457197
188.413923
174.370649
159.157103
146.284102
131.948260
115.271872
96.840075
81.626529
65.827846
51.199436
35.400753
19.016933
4.095955
-9.811663
-24.975143
-38.652008
-53.220841
-66.005736
-79.087954
-92.170172
-103.171128
-116.847992
-129.038241
-142.417782
-155.797323
-166.798279
-179.285851
-194.449331
-209.910134
-220.019120
-230.128107
-239.047801
-249.751434
-258.076482
-266.996176
-273.537285
-280.078394
-288.403442
-295.539197
-300.296367
-302.972275
-304.458891
-306.242830
-306.242830
-307.134799
-307.729446
-307.134799
-305.945507
-306.540153
-304.161568
-301.782983
-299.107075
-295.241874
-291.376673
-285.430210
-279.186424
-271.753346
-262.833652
-256.292543
-245.291587
-235.777247
-222.695029
-212.288719
-198.611855
-184.043021
-170.068834
-154.310707
-140.336520
-124.281071
-107.630975
-89.494264
-74.033461
-57.978011
-43.409178
-26.759082
-10.703633
4.388523
18.139229
34.230480
46.810913
61.146754
73.727187
85.137347
98.595484
109.713076
121.415804
132.825964
145.991533
158.279398
169.104421
180.807150
195.435560
209.771402
221.766698
229.666040
238.735654
249.853246
259.215428
268.285042
274.428975
281.158043
288.179680
296.664158
300.467545
303.978363
304.563500
305.441204
306.026341
307.489182
307.489182
308.074318
307.196613
306.026341
304.270931
302.222954
299.004704
296.371590
291.690499
287.594544
281.158043
273.551270
265.359360
255.412041
246.342427
236.980245
227.032926
213.574788
201.872060
188.706491
173.492944
157.986830
144.821261
130.192850
111.761054
95.084666
78.993415
64.072437
49.444026
33.060207
17.554092
1.462841
-12.784895
-27.056405
-40.733270
-54.112811
-68.086998
-82.061185
-93.656788
-106.144359
-118.334608
-131.714149
-144.201721
-159.067878
-167.690249
-181.367113
-196.233270
-210.207457
-220.613767
-229.830784
-238.750478
-250.940727
-259.563098
-267.888145
-275.618547
-281.862333
-290.484704
-294.944551
-300.593690
-302.377629
-305.350860
-305.648184
-307.729446
-307.432122
-306.242830
-307.134799
-306.837476
-305.945507
-303.269598
-303.269598
-299.107075
-295.836520
-290.484704
-285.727533
-277.402486
-270.266730
-262.536329
-253.913958
-244.994264
-234.587954
-222.100382
-210.802103
-196.827916
-183.151052
-168.284895
-153.418738
-139.741874
-125.173040
-104.955067
-88.602294
-72.249522
-57.086042
-42.219885
-24.975143
-10.406310
5.851364
20.479774
33.352775
47.396049
59.976482
74.312324
87.185325
98.888053
111.175917
121.708373
133.996237
147.161806
159.742239
170.274694
181.977422
196.605833
212.111947
221.474130
230.251176
240.783631
249.853246
260.678269
267.114770
274.721543
282.035748
289.642521
296.956726
300.760113
303.100659
304.856068
306.318909
306.904045
306.904045
306.904045
305.441204
306.318909
305.733772
304.563500
301.930386
299.297272
296.371590
290.812794
285.839135
279.402634
272.088429
262.726246
253.656632
245.172154
235.517404
224.984948
211.819379
199.531515
185.195673
169.982126
156.816557
143.065851
128.144873
109.127940
93.329257
76.652869
62.024459
47.981185
31.889934
15.506115
-0.891969
-14.271511
-27.948375
-41.922562
-55.302103
-69.276291
-82.061185
-95.738050
-107.333652
-120.118547
-132.606119
-144.499044
-158.473231
-170.366157
-182.259082
-196.530593
-211.099426
-221.803059
-231.020076
-241.723709
-250.940727
-260.455067
-267.590822
-276.213193
-282.754302
-288.106119
-294.647228
-301.485660
-303.566922
-305.945507
-307.134799
-307.729446
-306.242830
-307.432122
-307.134799
-306.242830
-305.945507
-304.458891
-301.485660
-297.917782
-294.052581
-290.484704
-283.646272
-277.105163
-272.050669
-262.239006
-253.319312
-243.210325
-232.804015
-222.397706
-209.612811
-195.341300
-181.961759
-166.798279
-151.634799
-137.957935
-123.389101
-105.252390
-86.521033
-72.546845
-55.599426
-40.138623
-24.380497
-8.622371
7.021637
21.942615
33.645343
47.981185
62.317027
75.482596
88.940734
100.058325
112.053622
123.171214
135.459078
147.746943
160.327375
170.859831
183.440263
198.946378
212.404516
224.107244
231.714017
240.783631
252.193791
260.678269
268.870179
275.891816
283.498589
290.520226
297.249294
302.222954
304.563500
306.026341
308.659454
307.196613
308.074318
308.074318
306.904045
306.904045
304.856068
303.100659
299.882408
299.004704
294.616181
290.227658
284.376294
279.402634
271.795861
261.848542
255.412041
244.294450
233.469426
222.936971
210.941675
198.068674
182.562559
168.226717
154.183443
141.310442
126.389464
109.127940
90.403575
75.190028
60.269050
46.225776
30.427093
13.750706
-1.783939
-14.568834
-30.029637
-42.814532
-57.680688
-70.465583
-84.142447
-96.035373
-109.117591
-121.307839
-133.498088
-145.985660
-159.662524
-169.771511
-183.745698
-199.206501
-213.180688
-223.586998
-232.209369
-241.426386
-250.346080
-261.347036
-268.482792
-273.834608
-282.456979
-288.998088
-296.133843
-301.782983
-304.756214
-306.837476
-308.324092
-307.432122
-306.837476
-307.729446
-305.945507
-305.945507
-305.648184
-303.566922
-301.485660
-297.323136
-295.241874
-288.700765
-283.646272
-276.807839
-269.374761
-259.860421
-251.238050
-242.318356
-232.506692
-219.127151
-208.423518
-195.043977
-181.367113
-165.608987
-151.337476
-137.363289
-120.415870
-103.468451
-86.521033
-69.870937
-55.302103
-39.543977
-22.893881
-7.135755
7.606773
22.235183
35.985889
47.396049
62.609595
76.067733
89.525870
100.936030
112.638758
124.926623
135.459078
149.209784
162.082785
171.152399
184.610536
199.824083
213.574788
224.107244
232.591722
243.709313
253.656632
262.726246
268.870179
277.354657
283.498589
292.275635
298.126999
302.222954
303.100659
304.856068
307.489182
308.074318
307.196613
308.366886
308.366886
307.196613
304.856068
303.100659
299.882408
298.419567
294.031044
290.227658
283.791157
278.232361
271.210724
262.433678
253.656632
243.709313
232.299153
221.766698
210.063970
197.483537
182.269991
167.641580
153.305738
139.262465
123.171214
107.079962
89.525870
74.312324
58.513641
44.470367
27.793979
11.410160
-2.973231
-17.244742
-30.921606
-45.787763
-58.869981
-72.844168
-85.629063
-97.224665
-109.712237
-122.199809
-134.092734
-148.958891
-160.554493
-171.555449
-184.340344
-200.990440
-214.369981
-225.370937
-233.398662
-241.723709
-252.130019
-262.239006
-268.780115
-276.510516
-283.051625
-290.782027
-296.728489
-301.782983
-303.566922
-305.053537
-306.540153
-307.134799
-307.729446
-305.053537
-308.324092
-305.648184
-304.756214
-304.458891
-301.485660
-298.809751
-293.755258
-288.403442
-283.051625
-275.618547
-269.077438
-260.455067
-252.130019
-241.426386
-230.722753
-220.316444
-207.234226
-192.962715
-180.177820
-164.122371
-149.256214
-135.579350
-118.631931
-100.495220
-84.737094
-68.978967
-53.220841
-38.354685
-21.407266
-6.541109
9.654751
23.990593
36.278457
50.029163
64.365005
78.115710
90.696143
102.691439
113.516463
125.804327
138.677328
150.965193
162.375353
173.200376
185.488241
201.872060
215.330198
224.107244
232.884290
244.001881
252.778928
263.018815
269.747883
277.354657
284.083725
291.397930
299.004704
302.222954
304.563500
306.026341
307.489182
308.659454
306.904045
307.489182
308.074318
304.563500
305.441204
302.808090
301.637817
298.712135
294.908749
289.935089
283.791157
277.354657
270.040452
260.970837
252.193791
242.246472
232.006585
220.888993
207.430856
194.265287
180.807150
165.593603
152.135466
137.799624
121.123236
102.984008
87.770461
71.386642
57.343368
41.252117
24.868297
9.654751
-5.054493
-18.434034
-33.002868
-47.274379
-60.356597
-74.033461
-86.521033
-98.711281
-111.793499
-123.983748
-136.471319
-149.850860
-161.149140
-173.042065
-185.826960
-201.287763
-215.856597
-225.668260
-233.695985
-245.886233
-253.616635
-263.130975
-268.780115
-277.105163
-282.754302
-291.376673
-297.323136
-300.891013
-304.756214
-307.729446
-307.134799
-308.324092
-307.432122
-307.729446
-306.242830
-306.242830
-304.161568
-301.782983
-300.891013
-297.025813
-293.160612
-288.106119
-280.375717
-274.726577
-267.888145
-258.076482
-250.048757
-240.534417
-229.830784
-217.937859
-205.747610
-193.260038
-177.204589
-163.230402
-149.850860
-134.092734
-118.037285
-99.305927
-83.250478
-67.789675
-51.436902
-36.570746
-19.028681
-4.459847
10.239887
23.698024
40.081844
51.492004
64.950141
76.945437
89.818438
103.861712
114.101599
125.511759
138.677328
151.257761
163.545626
173.200376
187.243650
202.457197
217.085607
226.155221
235.224835
245.172154
255.704610
263.896519
272.088429
278.524929
284.961430
293.445908
300.174976
301.930386
303.685795
305.441204
307.489182
307.781750
308.074318
308.659454
308.659454
306.318909
305.148636
303.100659
299.882408
297.541863
294.908749
289.349953
282.913452
275.599247
268.577611
260.093133
251.608655
242.246472
231.128881
219.426152
206.845720
194.265287
179.051740
164.130762
149.794920
135.459078
120.245532
101.521167
85.429915
70.801505
55.002822
40.666980
24.575729
8.191910
-6.243786
-20.515296
-33.300191
-49.355641
-62.140535
-76.114723
-88.304971
-100.197897
-112.685468
-125.470363
-137.957935
-150.445507
-162.635755
-173.042065
-187.610899
-203.963671
-215.559273
-226.857553
-234.290631
-246.183556
-253.913958
-264.022945
-271.456023
-275.618547
-283.348948
-292.565966
-296.728489
-301.782983
-304.161568
-305.350860
-307.432122
-307.729446
-308.324092
-306.540153
-307.134799
-305.053537
-303.269598
-302.377629
-298.512428
-295.241874
-290.484704
-286.619503
-280.078394
-274.726577
-266.401530
-258.373805
-248.859465
-239.047801
-229.236138
-215.856597
-204.558317
-190.584130
-175.123327
-162.635755
-147.174952
-133.795411
-115.956023
-97.819312
-80.871893
-66.005736
-50.544933
-35.084130
-18.434034
-2.081262
11.702728
25.160865
40.081844
52.369708
65.827846
79.285983
91.573848
103.276576
116.149577
127.559737
140.140169
153.305738
165.008467
175.540922
189.291627
204.212606
218.255880
227.325494
235.517404
246.342427
255.997178
265.944497
272.088429
277.939793
286.424271
293.153340
299.297272
303.100659
304.563500
306.611477
306.904045
308.366886
308.366886
307.489182
308.074318
306.904045
303.685795
303.100659
299.882408
297.249294
292.568203
287.301976
282.328316
275.599247
267.407338
260.093133
251.023518
240.783631
228.788335
218.255880
206.260583
191.632173
177.588899
162.960489
149.209784
135.459078
117.904986
101.228598
83.381938
68.753528
54.710254
38.326435
21.650047
6.436500
-8.027725
-20.515296
-35.381453
-48.760994
-63.924474
-77.601338
-89.494264
-101.981836
-114.766730
-125.767686
-139.444551
-152.824092
-164.717017
-174.826004
-189.692161
-206.342256
-218.532505
-226.262906
-235.479924
-245.588910
-255.995220
-262.833652
-271.158700
-276.807839
-286.322180
-292.565966
-297.917782
-301.485660
-304.161568
-306.242830
-307.729446
-305.648184
-306.242830
-307.432122
-306.540153
-306.242830
-303.566922
-300.891013
-299.701721
-296.728489
-292.268642
-285.132887
-279.781071
-274.429254
-265.806883
-256.292543
-248.264818
-238.453155
-228.046845
-214.964627
-203.071702
-188.205545
-174.528681
-160.257170
-144.796367
-131.714149
-112.090822
-96.332696
-79.087954
-63.924474
-49.950287
-33.300191
-17.542065
-0.594646
13.165569
28.086548
40.374412
54.125118
68.168391
81.041392
94.206961
105.031985
116.442145
130.192850
141.895579
155.061148
165.886171
177.003763
190.461900
206.845720
218.548448
227.325494
235.809972
246.634995
257.460019
265.651929
272.673565
279.110066
286.424271
294.908749
299.882408
302.808090
303.978363
306.026341
308.074318
308.074318
308.074318
307.489182
307.781750
307.781750
304.270931
301.930386
299.882408
297.541863
292.275635
287.887112
281.158043
274.721543
268.577611
258.630292
250.145814
239.905927
227.910630
217.963311
203.920038
190.461900
176.418627
162.082785
146.576670
133.411101
115.564440
98.595484
81.041392
67.583255
51.784572
36.278457
20.479774
4.681091
-10.108987
-22.893881
-37.165392
-51.436902
-65.113767
-79.682600
-91.872849
-104.360421
-114.469407
-129.038241
-141.228489
-153.716061
-166.500956
-176.015296
-192.070746
-207.234226
-217.640535
-228.344168
-236.669216
-247.075526
-257.184512
-264.320268
-271.753346
-277.699809
-286.619503
-293.160612
-298.215105
-301.782983
-304.161568
-305.350860
-306.837476
-306.540153
-306.242830
-307.432122
-306.837476
-304.756214
-304.161568
-301.485660
-299.107075
-295.836520
-290.782027
-284.538241
-278.591778
-273.834608
-264.914914
-256.292543
-247.670172
-236.669216
-226.262906
-214.964627
-201.287763
-187.313576
-173.339388
-159.365201
-142.417782
-129.930210
-111.198853
-95.440727
-77.898662
-62.140535
-48.166348
-30.921606
-14.568834
0.292568
14.628410
28.964252
42.714958
54.125118
69.923801
82.504233
95.377234
107.372531
117.904986
130.192850
143.065851
155.646284
167.056444
178.174036
193.095014
207.138288
218.841016
228.495767
238.150517
248.390405
258.045155
266.237065
274.136406
281.158043
287.594544
294.031044
299.882408
304.270931
305.733772
305.148636
306.318909
308.366886
308.074318
308.074318
308.659454
306.611477
305.148636
302.808090
299.297272
296.079022
292.860771
286.716839
281.158043
274.136406
268.285042
256.874882
249.853246
237.857949
226.740357
215.915334
202.164628
188.121355
175.248354
159.157103
145.698965
130.777987
113.223895
95.669802
81.333960
64.950141
52.077140
34.230480
19.602070
3.803387
-11.000956
-24.380497
-39.841300
-52.328872
-66.303059
-79.979924
-92.467495
-104.657744
-117.145315
-129.632887
-141.823136
-156.689293
-166.798279
-177.501912
-193.260038
-206.639579
-218.829828
-227.154876
-237.858509
-248.562141
-257.481836
-264.320268
-271.456023
-279.781071
-285.430210
-293.160612
-299.701721
-302.674952
-305.648184
-305.945507
-306.242830
-305.350860
-306.837476
-306.540153
-306.242830
-304.458891
-302.674952
-301.485660
-299.999044
-295.241874
-290.782027
-284.835564
-279.186424
-272.645315
-264.022945
-254.508604
-245.886233
-235.479924
-224.776291
-213.180688
-198.909178
-185.826960
-169.771511
-155.797323
-143.607075
-127.254302
-110.604207
-92.170172
-77.006692
-60.356597
-46.977055
-31.813576
-13.379541
1.170273
14.920978
28.964252
43.300094
57.050800
69.923801
83.381938
95.962371
107.372531
119.075259
132.240828
144.528692
156.523989
167.349012
178.174036
194.265287
210.063970
219.718721
229.080903
239.320790
248.975541
259.215428
266.822201
273.843838
281.743180
288.764817
296.371590
301.345249
304.270931
305.441204
306.904045
307.781750
308.952023
308.952023
306.318909
306.904045
305.733772
305.148636
302.222954
300.760113
297.249294
291.983067
287.594544
281.158043
274.428975
265.651929
255.412041
246.927563
238.150517
226.155221
214.745061
201.872060
188.413923
172.615240
157.986830
145.698965
130.485419
110.883349
95.962371
78.115710
63.487300
49.151458
34.230480
18.139229
0.585136
-12.190249
-25.569790
-40.733270
-54.410134
-68.086998
-81.466539
-93.656788
-105.847036
-116.847992
-130.227533
-143.012428
-156.094646
-167.987572
-178.393881
-194.449331
-209.018164
-221.208413
-228.344168
-238.155832
-249.454111
-258.671128
-266.698853
-272.347992
-280.673040
-287.808795
-294.052581
-299.701721
-303.269598
-305.053537
-306.837476
-306.242830
-306.242830
-307.432122
-306.540153
-305.053537
-303.269598
-302.377629
-300.891013
-298.809751
-294.944551
-288.998088
-283.943595
-278.294455
-270.861377
-263.130975
-253.319312
-244.994264
-234.885277
-223.884321
-212.288719
-198.314532
-185.232314
-169.474187
-155.500000
-142.120459
-127.254302
-108.522945
-90.386233
-75.222753
-58.869981
-44.301147
-28.543021
-11.892925
2.340546
16.968956
31.304798
44.762935
59.391345
71.386642
85.429915
97.132643
108.835372
120.830668
133.118532
145.991533
157.694262
169.104421
181.099718
196.020696
210.941675
221.181562
230.836312
239.905927
250.438382
259.800564
267.699906
274.428975
282.620884
290.812794
296.664158
301.052681
304.270931
305.441204
306.026341
307.781750
308.074318
307.489182
309.537159
307.489182
306.318909
303.100659
302.808090
299.297272
296.079022
291.105362
285.253998
279.695202
273.258702
264.481656
255.412041
246.634995
236.980245
224.692380
212.697084
200.409219
185.195673
171.737535
156.523989
142.773283
128.730009
109.127940
93.621825
77.823142
62.317027
47.981185
32.182502
16.383819
0.292568
-13.082218
-28.840344
-41.625239
-55.599426
-69.870937
-82.358509
-95.738050
-108.225621
-119.821224
-132.011472
-145.985660
-157.878585
-168.582218
-180.772467
-195.341300
-209.910134
-219.424474
-230.425430
-239.047801
-248.859465
-258.671128
-265.806883
-271.753346
-280.970363
-288.403442
-294.944551
-299.107075
-302.377629
-304.458891
-307.134799
-306.540153
-305.350860
-307.729446
-307.432122
-305.945507
-305.053537
-301.782983
-300.593690
-297.323136
-294.944551
-288.700765
-283.051625
-278.294455
-270.564054
-263.130975
-254.508604
-243.507648
-233.398662
-223.586998
-210.207457
-197.422562
-183.448375
-168.879541
-153.121415
-139.444551
-123.686424
-107.036329
-88.007648
-74.330784
-57.086042
-44.003824
-26.461759
-10.406310
3.803387
18.431797
32.475071
46.518344
60.269050
72.264346
85.429915
98.010348
110.298213
122.000941
133.411101
146.284102
160.327375
169.396990
182.269991
197.190969
212.111947
223.229539
231.128881
240.783631
251.316087
260.678269
268.870179
275.306679
282.328316
289.349953
296.956726
302.515522
304.563500
306.318909
306.904045
306.904045
308.074318
307.781750
308.366886
308.074318
306.318909
306.318909
302.808090
299.004704
295.786453
291.983067
285.546566
278.524929
273.843838
263.896519
255.412041
245.172154
234.932267
224.984948
211.819379
198.361242
185.195673
170.567262
154.183443
142.188147
126.096896
109.127940
91.281279
75.775165
60.269050
46.518344
29.549389
14.043274
-1.189293
-15.460803
-27.948375
-43.409178
-57.680688
-70.465583
-84.142447
-96.035373
-107.333652
-120.118547
-132.011472
-146.580306
-158.770554
-168.582218
-181.367113
-197.422562
-211.694073
-221.803059
-231.020076
-239.345124
-250.048757
-259.860421
-266.996176
-273.834608
-281.267686
-288.403442
-294.349904
-300.891013
-304.458891
-305.945507
-305.053537
-305.053537
-306.837476
-305.648184
-305.945507
-306.837476
-304.161568
-302.080306
-300.593690
-299.107075
-295.241874
-288.700765
-284.240918
-277.402486
-269.077438
-260.455067
-253.021989
-242.021033
-232.506692
-222.695029
-208.423518
-195.341300
-181.961759
-167.690249
-152.229446
-139.444551
-122.497132
-105.549713
-87.710325
-71.952199
-56.491396
-40.733270
-24.975143
-9.811663
6.729069
19.602070
33.937912
47.103481
62.609595
75.190028
86.892756
100.936030
111.761054
122.586077
135.459078
147.161806
161.497648
170.859831
183.440263
199.238946
212.989652
223.814675
231.714017
241.661336
251.608655
261.263405
269.455315
276.769520
284.083725
291.690499
299.589840
302.515522
305.148636
306.904045
306.904045
309.244591
308.366886
307.781750
307.489182
305.733772
305.733772
303.685795
301.637817
299.882408
296.371590
291.105362
284.961430
278.817498
272.673565
263.603951
253.656632
244.001881
234.639699
223.522107
209.771402
196.313264
183.732832
167.641580
153.890875
140.140169
124.048918
105.909690
89.818438
73.727187
59.391345
43.885230
27.208843
13.165569
-2.378585
-16.055449
-30.921606
-43.111855
-58.572658
-72.249522
-84.737094
-96.927342
-110.009560
-120.713193
-134.687380
-147.472275
-159.959847
-170.663480
-182.853728
-200.098470
-213.478011
-222.695029
-231.912046
-241.426386
-251.832696
-260.455067
-268.185468
-275.023901
-281.565010
-290.484704
-295.539197
-300.891013
-305.648184
-306.242830
-306.837476
-307.134799
-307.729446
-305.945507
-304.756214
-306.837476
-303.864245
-301.782983
-301.485660
-297.323136
-294.052581
-288.403442
-283.051625
-276.807839
-269.374761
-259.563098
-251.832696
-240.831740
-231.912046
-220.911090
-207.234226
-195.341300
-180.772467
-166.500956
-151.337476
-137.065966
-120.713193
-102.873805
-85.629063
-70.168260
-55.599426
-39.841300
-22.596558
-8.622371
7.314205
21.650047
35.693321
48.566322
62.609595
76.067733
88.940734
101.228598
112.638758
124.048918
136.629351
149.794920
163.253057
173.200376
185.195673
201.579492
214.159925
224.984948
233.176858
243.416745
254.241769
263.603951
269.747883
279.110066
282.913452
292.860771
298.126999
301.930386
303.978363
306.026341
308.659454
308.952023
308.074318
309.537159
307.489182
306.904045
305.148636
302.222954
302.222954
299.589840
296.664158
290.520226
284.668862
279.110066
269.747883
261.848542
253.949200
244.294450
233.469426
221.474130
209.186265
195.728128
181.392286
165.886171
152.720602
139.847601
122.878645
105.324553
88.063029
73.434619
58.513641
43.300094
26.623706
10.239887
-2.973231
-16.947419
-33.002868
-46.382409
-58.869981
-74.330784
-86.223709
-98.413958
-110.306883
-122.497132
-136.173996
-148.661568
-161.446463
-171.555449
-185.232314
-200.395793
-213.180688
-224.478967
-232.209369
-244.102294
-252.724665
-261.644359
-268.780115
-275.023901
-283.646272
-291.376673
-296.728489
-301.485660
-302.674952
-305.053537
-305.350860
-306.837476
-308.026769
-306.540153
-306.242830
-305.053537
-302.674952
-302.377629
-298.215105
-296.728489
-291.673996
-286.916826
-281.267686
-275.023901
-268.185468
-258.671128
-250.940727
-241.129063
-229.830784
-218.532505
-206.936902
-193.260038
-178.691205
-162.933078
-148.661568
-134.984704
-118.037285
-100.495220
-83.547801
-68.978967
-53.518164
-38.652008
-21.407266
-5.351816
8.484478
21.942615
37.156162
50.321731
64.365005
77.238006
90.111007
101.228598
112.638758
125.804327
136.921919
150.965193
162.082785
172.322672
186.951082
202.164628
215.915334
226.447789
234.347131
244.587018
253.949200
264.189087
271.503293
278.232361
287.594544
291.983067
298.712135
302.808090
304.856068
306.026341
307.196613
308.659454
307.489182
308.366886
308.074318
306.904045
306.026341
303.393227
300.760113
298.419567
294.031044
288.764817
283.498589
277.354657
270.625588
262.433678
251.608655
243.124177
231.421449
221.474130
208.308561
194.557855
180.514581
165.593603
149.209784
138.384760
119.367827
103.276576
85.722484
71.094073
56.758231
41.837253
24.283161
9.362183
-6.243786
-20.217973
-33.597514
-47.571702
-61.843212
-74.330784
-87.413002
-100.197897
-112.090822
-123.983748
-137.065966
-151.040153
-161.743786
-173.042065
-186.421606
-202.477055
-215.856597
-225.073614
-233.695985
-243.210325
-253.616635
-261.644359
-269.077438
-275.023901
-283.943595
-290.782027
-296.431166
-302.080306
-303.269598
-306.242830
-306.242830
-306.540153
-306.837476
-304.458891
-307.432122
-306.242830
-303.864245
-302.377629
-299.701721
-296.133843
-292.268642
-286.322180
-281.267686
-275.618547
-267.590822
-257.779159
-248.562141
-239.642447
-228.938815
-217.937859
-206.044933
-191.476099
-177.204589
-159.959847
-147.472275
-133.498088
-116.847992
-98.116635
-82.655832
-66.897706
-51.436902
-35.976099
-19.920650
-3.865201
10.239887
24.575729
38.911571
50.906867
65.242709
77.823142
90.988711
102.984008
114.394167
127.267168
138.969897
151.550329
163.545626
174.955786
187.828786
203.920038
217.378175
226.740357
235.809972
245.464722
256.289746
265.066792
271.795861
280.280339
285.546566
293.153340
299.882408
303.393227
305.148636
307.489182
308.952023
308.074318
308.074318
308.659454
306.318909
306.904045
306.026341
303.685795
302.222954
299.882408
294.616181
289.057385
283.791157
276.184384
269.747883
260.093133
251.316087
241.076199
231.421449
220.011289
206.553151
193.680151
178.466604
164.130762
149.502352
135.751646
119.367827
101.228598
84.844779
69.046096
55.002822
40.374412
23.112888
8.484478
-7.135755
-20.217973
-35.976099
-47.571702
-62.437859
-76.709369
-89.196941
-101.684512
-113.280115
-126.065010
-139.444551
-151.337476
-163.825048
-173.042065
-187.908222
-203.666348
-216.451243
-225.668260
-234.587954
-244.696941
-254.211281
-263.725621
-268.482792
-277.105163
-283.943595
-292.268642
-298.809751
-302.080306
-305.350860
-306.242830
-306.242830
-305.945507
-307.432122
-305.350860
-304.161568
-304.756214
-302.080306
-301.188337
-299.999044
-295.836520
-292.268642
-286.322180
-280.673040
-274.726577
-266.698853
-257.184512
-247.967495
-237.858509
-229.236138
-216.451243
-203.666348
-190.881453
-175.420650
-160.257170
-147.174952
-132.011472
-115.064054
-96.630019
-79.979924
-66.897706
-49.355641
-33.894837
-18.136711
-0.891969
11.702728
26.331138
39.496707
53.247413
66.705550
78.700847
91.866416
103.569144
115.271872
127.852305
139.847601
153.598307
164.715898
176.126058
190.461900
205.968015
218.841016
227.618062
236.687676
248.097836
256.874882
265.359360
273.843838
279.110066
287.009407
295.493885
299.297272
304.270931
306.318909
306.026341
307.489182
309.537159
309.537159
308.074318
308.952023
306.904045
304.856068
303.978363
301.052681
296.956726
293.445908
287.594544
282.620884
275.599247
269.455315
258.922860
251.023518
241.368768
229.958608
218.841016
206.260583
191.924741
177.296331
162.667921
148.039511
133.996237
117.027281
99.765757
83.089370
68.753528
52.954845
37.741298
21.650047
5.558796
-8.325048
-22.596558
-35.678776
-49.355641
-64.221797
-76.709369
-89.791587
-101.387189
-114.172084
-126.362333
-139.741874
-153.121415
-163.527725
-175.420650
-191.178776
-206.044933
-217.045889
-226.857553
-235.182600
-245.886233
-255.103250
-264.320268
-271.456023
-277.402486
-285.132887
-290.782027
-297.620459
-301.188337
-303.269598
-305.648184
-306.837476
-305.945507
-306.242830
-306.540153
-305.053537
-305.648184
-302.674952
-301.188337
-299.107075
-295.539197
-291.079350
-283.646272
-278.591778
-272.942639
-265.806883
-257.184512
-246.778203
-236.669216
-226.560229
-214.964627
-202.477055
-187.908222
-174.231358
-160.257170
-145.688337
-130.822180
-112.982792
-95.143403
-79.682600
-63.924474
-49.355641
-32.408222
-16.947419
-1.189293
15.213547
28.086548
42.129821
54.417686
67.583255
81.919097
94.206961
105.909690
117.904986
130.485419
142.773283
154.768579
166.471308
176.711195
191.924741
206.553151
218.548448
228.788335
237.272813
248.097836
258.922860
266.822201
273.843838
280.865475
287.594544
294.908749
301.052681
305.148636
306.904045
308.659454
308.366886
307.781750
308.074318
308.074318
306.318909
306.904045
304.856068
303.100659
302.222954
299.297272
294.323612
288.764817
282.913452
277.647225
267.699906
260.678269
249.268109
239.320790
229.666040
