238.735654
136.921919
-23.025962
119.952963
185.195673
155.938852
156.231421
140.140169
126.096896
105.909690
91.866416
75.775165
63.194732
41.837253
27.501411
11.995296
-0.000000
-15.849038
-32.296154
-46.650000
-61.601923
-74.460577
-87.319231
-100.177885
-113.634615
-130.978846
-140.847115
-157.892308
-167.461538
-175.236538
-189.291346
-209.027885
-214.410577
-227.269231
-237.436538
-241.922115
-253.285577
-256.575000
-268.536538
-276.610577
-278.703846
-283.488462
-290.964423
-290.366346
-286.478846
-286.777885
-288.572115
-282.890385
-276.909615
-272.723077
-266.144231
-255.677885
-243.417308
-235.941346
-225.774038
-210.822115
-193.178846
-178.226923
-164.770192
-142.043269
-120.512500
-101.972115
-87.020192
-66.984615
-54.724038
-33.492308
-20.035577
-6.578846
11.995296
23.990593
35.108184
43.885230
57.928504
69.338664
81.919097
83.381938
97.425212
103.276576
114.686736
116.734713
127.559737
133.703669
136.044214
144.236124
152.135466
157.401693
159.157103
161.205080
168.226717
176.711195
184.903104
193.680151
198.068674
206.260583
220.596425
232.006585
242.246472
245.757291
252.193791
263.896519
270.918156
275.306679
282.035748
285.839135
291.105362
297.249294
304.270931
307.489182
303.100659
305.148636
307.781750
309.244591
311.000000
308.074318
304.856068
307.489182
305.441204
300.760113
300.760113
299.589840
292.860771
285.546566
279.987770
275.891816
265.066792
253.949200
245.464722
235.517404
224.399812
214.159925
201.872060
187.243650
173.492944
158.864534
145.698965
130.485419
113.223895
95.962371
80.456256
65.535278
53.832549
35.985889
20.772342
5.851364
-10.765385
-23.624038
-37.678846
-53.228846
-66.087500
-80.740385
-93.300000
-105.261538
-118.120192
-130.380769
-144.734615
-159.387500
-167.760577
-182.114423
-194.973077
-212.915385
-223.082692
-230.259615
-241.324038
-251.790385
-260.761538
-267.938462
-272.424038
-282.292308
-287.974038
-296.945192
-303.823077
-302.626923
-304.720192
-307.411538
-307.112500
-308.906731
-311.000000
-308.308654
-307.112500
-305.916346
-303.823077
-302.626923
-297.842308
-292.459615
-287.076923
-280.199038
-272.424038
-263.153846
-254.780769
-242.819231
-230.857692
-219.494231
-207.532692
-191.384615
-176.731731
-161.480769
-143.538462
-126.493269
-109.747115
-91.804808
-72.666346
-53.527885
-37.977885
-20.334615
-5.382692
9.654751
25.453434
38.326435
52.077140
64.657573
75.482596
86.307620
97.425212
107.957667
118.197554
128.437441
138.384760
149.209784
159.742239
172.615240
181.099718
192.509878
206.845720
220.303857
228.495767
236.687676
246.927563
254.241769
263.311383
270.333020
276.476952
283.498589
287.887112
295.201317
299.004704
304.563500
304.270931
306.904045
306.611477
308.074318
306.318909
308.074318
306.611477
306.026341
303.685795
301.345249
300.760113
296.371590
291.397930
284.961430
279.695202
271.210724
264.189087
253.656632
245.464722
236.395108
224.399812
213.282220
200.994356
185.780809
171.444967
157.401693
143.943556
129.315146
111.175917
95.669802
78.700847
64.657573
50.906867
35.693321
19.602070
3.803387
-11.961538
-25.119231
-39.772115
-52.032692
-67.283654
-78.647115
-94.197115
-105.261538
-118.120192
-133.072115
-145.033654
-158.789423
-169.853846
-182.114423
-199.159615
-214.111538
-225.475000
-232.053846
-241.623077
-251.491346
-261.359615
-268.237500
-275.115385
-283.488462
-290.366346
-297.543269
-300.234615
-305.617308
-306.813462
-309.803846
-308.009615
-308.308654
-309.205769
-308.906731
-308.607692
-306.514423
-304.720192
-304.421154
-299.337500
-295.749038
-289.768269
-284.086538
-276.610577
-269.433654
-259.266346
-248.800000
-237.436538
-227.269231
-215.008654
-202.150000
-188.394231
-172.246154
-156.696154
-141.445192
-124.998077
-108.850000
-89.711538
-72.367308
-55.023077
-40.669231
-24.521154
-8.074038
8.191910
21.942615
35.693321
48.858890
62.609595
74.019755
85.429915
98.595484
108.250235
119.952963
131.363123
143.943556
155.061148
167.934149
177.881468
189.291627
203.920038
215.915334
227.618062
234.054563
244.001881
253.656632
262.141110
269.747883
276.184384
280.280339
289.642521
296.371590
299.004704
304.270931
304.563500
307.196613
307.781750
305.733772
307.196613
307.196613
307.196613
304.856068
303.685795
303.100659
299.297272
295.201317
291.983067
285.253998
278.232361
272.380997
262.726246
254.534337
244.001881
234.639699
224.107244
213.282220
199.238946
186.073377
169.982126
156.523989
143.065851
128.144873
112.053622
95.084666
79.871119
64.657573
51.199436
35.108184
18.431797
4.388523
-10.466346
-26.315385
-40.669231
-54.125962
-68.180769
-82.235577
-93.000962
-106.158654
-118.120192
-132.474038
-145.332692
-159.686538
-169.853846
-182.712500
-198.262500
-212.018269
-223.979808
-232.352885
-241.025000
-251.790385
-261.060577
-269.433654
-275.713462
-281.993269
-290.366346
-296.646154
-300.234615
-304.421154
-307.710577
-308.906731
-308.308654
-308.009615
-308.607692
-308.607692
-307.710577
-306.813462
-305.617308
-305.019231
-300.832692
-296.646154
-290.067308
-284.983654
-279.301923
-270.330769
-261.060577
-250.893269
-241.324038
-229.661538
-219.494231
-205.140385
-192.281731
-177.030769
-161.480769
-144.136538
-130.380769
-115.129808
-95.991346
-78.946154
-61.900962
-46.051923
-31.997115
-13.755769
0.877705
15.213547
29.841957
42.422389
57.635936
69.046096
80.163688
94.206961
105.324553
117.612418
129.022578
141.017874
153.013170
166.178739
174.663217
187.828786
201.872060
215.622766
225.862653
232.299153
243.709313
251.901223
260.970837
267.407338
274.721543
281.158043
289.642521
296.079022
300.467545
303.978363
305.733772
307.196613
307.489182
308.366886
306.904045
306.904045
306.318909
304.856068
302.808090
301.930386
298.712135
295.493885
289.642521
284.961430
279.402634
270.625588
262.141110
253.656632
244.879586
235.224835
222.936971
212.989652
199.824083
184.610536
171.444967
155.061148
142.480715
127.852305
110.590781
94.792098
78.408278
64.657573
50.614299
33.352775
18.139229
2.633114
-11.961538
-26.614423
-40.968269
-55.023077
-67.881731
-80.441346
-93.000962
-106.158654
-118.718269
-132.175000
-145.332692
-159.686538
-171.349038
-183.310577
-199.757692
-213.513462
-223.381731
-232.651923
-240.725962
-252.687500
-261.359615
-268.237500
-277.208654
-284.684615
-290.366346
-295.749038
-301.729808
-304.421154
-307.411538
-309.803846
-309.205769
-309.504808
-309.205769
-309.504808
-308.906731
-308.009615
-305.019231
-304.122115
-300.234615
-296.347115
-290.964423
-284.983654
-279.002885
-270.330769
-261.957692
-252.388462
-242.520192
-231.156731
-219.793269
-207.233654
-192.281731
-179.124038
-163.574038
-147.725000
-133.371154
-116.026923
-98.383654
-81.338462
-65.489423
-50.238462
-34.987500
-17.942308
-2.093269
11.995296
26.916275
40.666980
53.832549
66.998119
78.408278
90.696143
103.569144
114.979304
126.682032
138.384760
150.380056
164.715898
173.200376
186.073377
201.872060
215.622766
224.399812
232.006585
240.491063
251.316087
259.800564
268.285042
275.599247
282.035748
289.642521
295.201317
299.882408
303.393227
305.441204
306.611477
306.611477
307.489182
306.318909
306.318909
306.026341
305.441204
302.808090
300.760113
298.712135
296.956726
289.935089
283.791157
278.524929
271.503293
262.433678
253.071496
244.001881
234.639699
223.814675
210.649106
198.361242
184.903104
170.274694
157.694262
142.188147
129.022578
110.590781
94.206961
78.993415
63.779868
50.321731
33.937912
17.261524
2.633114
-12.858654
-26.315385
-41.865385
-55.023077
-67.881731
-80.740385
-94.795192
-105.560577
-117.821154
-132.175000
-145.332692
-159.985577
-169.255769
-183.609615
-200.056731
-214.111538
-223.680769
-232.352885
-241.922115
-252.089423
-259.864423
-268.536538
-276.012500
-281.993269
-291.562500
-295.450000
-301.430769
-304.421154
-306.514423
-307.710577
-308.308654
-309.803846
-308.906731
-309.205769
-307.411538
-306.813462
-303.823077
-301.131731
-299.337500
-294.552885
-289.768269
-284.086538
-277.507692
-270.330769
-262.854808
-253.285577
-242.819231
-232.053846
-220.989423
-208.130769
-193.477885
-178.825000
-162.676923
-149.220192
-133.969231
-117.821154
-100.177885
-82.534615
-66.386538
-51.135577
-34.688462
-19.437500
-5.083654
10.825024
25.453434
39.204139
51.784572
65.242709
77.530574
90.988711
103.861712
114.101599
126.974600
139.555033
150.672625
163.838194
174.955786
185.488241
200.409219
214.745061
225.570085
232.006585
242.539040
252.193791
261.263405
267.992474
274.721543
282.620884
288.179680
295.786453
302.222954
304.563500
306.026341
307.781750
308.074318
307.196613
307.196613
308.074318
306.904045
305.148636
302.808090
300.467545
298.419567
295.201317
289.642521
284.668862
279.110066
270.333020
263.311383
253.949200
244.587018
234.347131
223.814675
211.234243
198.653810
184.903104
169.104421
155.353716
141.017874
127.267168
108.542803
93.329257
76.652869
61.146754
47.981185
30.719661
16.091251
0.877705
-12.858654
-29.604808
-41.267308
-55.621154
-69.077885
-83.730769
-95.094231
-107.354808
-120.213462
-133.371154
-146.528846
-160.882692
-170.451923
-183.908654
-199.458654
-213.214423
-225.175962
-233.549038
-242.819231
-251.790385
-261.060577
-268.536538
-276.012500
-282.890385
-290.067308
-297.244231
-300.832692
-305.617308
-308.308654
-308.906731
-309.205769
-308.607692
-309.504808
-309.504808
-307.411538
-305.916346
-303.524038
-301.729808
-299.935577
-295.450000
-290.964423
-283.787500
-278.105769
-270.031731
-261.957692
-252.687500
-241.922115
-231.754808
-221.587500
-207.532692
-194.375000
-181.815385
-164.172115
-150.117308
-133.969231
-119.615385
-102.271154
-83.730769
-68.180769
-52.929808
-37.379808
-20.334615
-5.083654
9.069614
24.868297
38.326435
52.662277
64.072437
76.945437
90.111007
102.398871
114.394167
126.389464
138.092192
151.257761
163.545626
173.200376
184.903104
200.116651
213.574788
224.399812
232.591722
242.246472
252.486359
260.678269
268.870179
275.891816
282.328316
288.764817
295.786453
300.467545
303.978363
306.026341
306.318909
306.026341
308.074318
306.611477
307.489182
306.026341
304.270931
302.808090
301.930386
299.882408
296.371590
290.520226
284.083725
277.062088
270.918156
262.141110
253.364064
244.001881
233.176858
222.936971
211.234243
197.776105
184.317968
168.811853
154.476011
142.480715
126.682032
108.250235
91.573848
76.360301
61.439323
46.518344
31.012230
14.628410
0.292568
-14.652885
-28.408654
-42.762500
-56.817308
-70.274038
-83.132692
-96.290385
-107.653846
-119.914423
-133.969231
-147.126923
-160.583654
-171.349038
-183.908654
-200.953846
-215.606731
-225.175962
-232.651923
-243.716346
-251.790385
-261.957692
-269.134615
-276.012500
-282.591346
-290.366346
-298.440385
-301.131731
-304.421154
-307.411538
-308.308654
-309.205769
-310.102885
-308.607692
-309.504808
-308.308654
-306.514423
-304.122115
-302.925962
-299.935577
-296.646154
-291.562500
-284.385577
-277.806731
-270.928846
-260.761538
-252.986538
-243.417308
-232.651923
-220.989423
-208.728846
-195.571154
-180.021154
-165.966346
-149.818269
-136.660577
-119.914423
-101.972115
-84.029808
-69.376923
-52.929808
-37.977885
-21.530769
-5.382692
9.362183
24.868297
37.156162
50.906867
64.950141
77.530574
89.525870
102.691439
112.931326
124.634055
138.092192
149.502352
162.667921
172.615240
185.488241
201.286924
214.452493
224.107244
232.006585
241.661336
251.608655
261.263405
268.577611
276.184384
282.620884
290.227658
296.079022
300.760113
303.100659
304.563500
306.318909
307.781750
307.489182
307.781750
307.781750
307.781750
306.026341
302.808090
301.930386
298.126999
295.201317
289.642521
282.913452
277.647225
270.625588
263.018815
253.656632
243.416745
232.884290
222.351834
212.111947
196.605833
184.317968
170.274694
154.183443
142.188147
125.511759
109.127940
91.573848
76.652869
60.854186
47.103481
31.012230
15.213547
0.585136
-14.353846
-28.408654
-43.061538
-55.920192
-71.470192
-84.029808
-96.589423
-107.952885
-122.007692
-132.773077
-146.827885
-160.882692
-171.349038
-183.908654
-202.150000
-214.410577
-223.680769
-232.352885
-242.520192
-252.986538
-262.256731
-269.433654
-276.311538
-282.292308
-290.665385
-296.347115
-300.533654
-304.122115
-305.916346
-308.009615
-308.009615
-309.205769
-309.205769
-307.710577
-307.710577
-305.019231
-304.421154
-302.028846
-299.935577
-296.347115
-289.768269
-284.385577
-276.909615
-270.031731
-262.854808
-251.790385
-244.613462
-233.250000
-221.886538
-208.429808
-196.169231
-180.619231
-165.069231
-151.014423
-135.763462
-119.017308
-101.972115
-84.029808
-69.376923
-54.125962
-38.575962
-21.530769
-5.681731
10.239887
23.990593
37.156162
50.321731
64.072437
77.530574
90.403575
101.521167
114.101599
124.634055
137.799624
149.794920
162.960489
173.200376
185.780809
200.701787
213.867357
224.107244
231.128881
241.953904
252.193791
261.555974
268.870179
276.184384
283.206021
289.935089
297.834431
301.637817
304.856068
307.489182
308.366886
308.074318
308.366886
308.074318
308.952023
306.611477
305.148636
304.270931
301.345249
297.834431
294.616181
288.764817
283.206021
277.939793
271.503293
262.141110
253.949200
243.709313
234.054563
222.059266
211.526811
197.483537
182.562559
169.104421
153.598307
140.432738
124.048918
106.202258
90.403575
75.190028
59.098777
46.225776
29.841957
13.458137
-1.495192
-15.849038
-29.006731
-44.556731
-57.714423
-71.171154
-84.328846
-95.991346
-108.850000
-121.409615
-134.268269
-147.725000
-161.181731
-171.947115
-185.702885
-200.953846
-215.905769
-225.175962
-233.549038
-243.417308
-253.285577
-261.658654
-270.330769
-276.311538
-282.890385
-290.067308
-296.646154
-301.729808
-304.122115
-307.411538
-308.009615
-310.401923
-308.607692
-308.607692
-308.308654
-308.308654
-306.215385
-305.019231
-302.327885
-300.234615
-297.244231
-290.665385
-284.983654
-278.105769
-269.732692
-260.163462
-252.388462
-241.922115
-233.250000
-221.587500
-208.429808
-195.272115
-179.722115
-165.368269
-151.014423
-136.660577
-119.615385
-101.374038
-84.328846
-69.675962
-52.929808
-37.977885
-21.829808
-5.980769
8.777046
22.527752
37.741298
50.614299
64.365005
76.360301
89.525870
101.521167
113.223895
125.219191
137.214487
149.209784
162.667921
171.737535
185.195673
199.531515
213.574788
223.522107
233.176858
242.539040
253.364064
263.018815
269.455315
276.184384
283.206021
290.520226
296.664158
301.637817
305.148636
305.733772
306.318909
306.904045
307.489182
307.489182
306.611477
307.196613
304.856068
303.393227
302.808090
299.004704
296.664158
290.812794
285.839135
277.647225
269.747883
262.433678
252.486359
243.709313
233.176858
223.229539
209.771402
197.483537
184.317968
167.934149
156.816557
141.017874
125.804327
107.957667
90.696143
75.482596
60.561618
45.055503
29.841957
14.628410
-1.196154
-16.746154
-30.501923
-43.360577
-57.415385
-70.573077
-84.328846
-96.888462
-110.046154
-121.409615
-135.165385
-147.725000
-160.284615
-172.246154
-184.805769
-200.953846
-214.410577
-225.475000
-232.651923
-242.819231
-253.584615
-261.957692
-268.835577
-276.311538
-283.787500
-290.665385
-295.450000
-301.131731
-305.019231
-307.411538
-308.308654
-308.607692
-309.205769
-309.803846
-307.411538
-308.009615
-305.318269
-303.823077
-301.430769
-297.842308
-293.954808
-290.366346
-282.890385
-277.507692
-269.732692
-261.658654
-253.285577
-242.520192
-232.651923
-221.288462
-208.429808
-194.973077
-180.619231
-164.770192
-149.818269
-136.361538
-119.316346
-101.673077
-84.627885
-68.778846
-52.331731
-37.977885
-22.427885
-5.681731
8.191910
23.990593
37.741298
50.029163
63.194732
77.530574
90.111007
102.398871
114.979304
126.389464
137.799624
150.672625
163.253057
172.615240
185.780809
201.579492
215.037629
225.570085
232.884290
242.539040
252.778928
261.263405
268.870179
276.476952
282.913452
290.520226
296.956726
302.515522
304.563500
306.318909
308.659454
308.366886
308.952023
308.659454
306.611477
306.904045
305.441204
302.515522
300.174976
298.712135
296.079022
289.935089
283.498589
277.062088
270.333020
261.263405
252.778928
245.464722
234.347131
222.059266
211.234243
196.605833
183.147695
167.934149
153.598307
140.140169
124.048918
107.079962
88.940734
74.312324
58.513641
45.055503
27.793979
11.995296
-2.392308
-16.746154
-31.698077
-46.350962
-58.611538
-73.563462
-84.926923
-98.383654
-109.448077
-121.409615
-134.866346
-149.519231
-162.078846
-172.844231
-185.403846
-200.953846
-215.606731
-226.073077
-233.848077
-242.819231
-252.687500
-262.854808
-270.330769
-275.713462
-283.787500
-290.366346
-296.347115
-302.028846
-306.215385
-307.112500
-307.411538
-307.710577
-308.607692
-307.710577
-307.112500
-308.607692
-306.215385
-304.122115
-301.430769
-301.430769
-296.048077
-290.964423
-284.684615
-277.507692
-270.031731
-261.957692
-252.089423
-242.819231
-231.754808
-221.288462
-207.831731
-193.477885
-180.021154
-165.368269
-150.416346
-134.567308
-119.914423
-101.972115
-84.627885
-69.077885
-53.228846
-38.575962
-21.829808
-6.578846
8.777046
22.820320
38.033866
49.444026
64.950141
76.945437
90.403575
102.106303
114.394167
125.511759
138.969897
150.965193
163.545626
173.785513
185.780809
201.579492
214.452493
224.984948
233.469426
242.831609
254.826905
263.896519
269.162747
277.062088
283.791157
291.983067
296.956726
300.174976
304.563500
305.441204
306.904045
308.074318
308.952023
307.781750
308.952023
307.781750
304.563500
303.393227
301.345249
299.589840
294.616181
289.642521
283.791157
277.647225
269.455315
261.848542
253.364064
244.001881
232.006585
221.474130
210.941675
196.313264
182.855127
167.934149
152.720602
138.677328
122.293509
104.739417
87.770461
74.312324
59.098777
43.592662
28.379116
11.702728
-4.186538
-17.045192
-31.698077
-45.453846
-59.508654
-73.563462
-85.525000
-98.981731
-110.943269
-122.904808
-136.361538
-149.818269
-162.676923
-173.143269
-185.702885
-201.850962
-215.606731
-225.774038
-233.250000
-243.118269
-253.584615
-261.957692
-271.227885
-276.909615
-283.189423
-290.366346
-297.543269
-302.327885
-304.720192
-307.112500
-307.710577
-309.803846
-308.308654
-307.710577
-308.607692
-306.813462
-307.112500
-305.318269
-302.626923
-298.739423
-295.450000
-290.067308
-282.292308
-277.208654
-270.031731
-260.462500
-251.790385
-241.623077
-230.558654
-220.989423
-207.831731
-194.674038
-180.918269
-164.471154
-149.818269
-133.670192
-119.914423
-100.476923
-84.029808
-68.479808
-53.527885
-38.875000
-21.231731
-6.578846
8.484478
23.112888
36.571025
50.321731
64.657573
77.238006
89.818438
102.106303
114.686736
126.682032
139.262465
151.550329
162.667921
173.200376
185.780809
201.872060
214.745061
224.692380
233.469426
243.416745
253.364064
262.433678
269.162747
277.939793
283.791157
291.690499
297.249294
301.345249
303.978363
306.611477
306.318909
306.904045
308.659454
308.952023
307.489182
308.074318
305.148636
302.808090
301.637817
298.419567
296.079022
290.520226
283.498589
278.232361
269.747883
261.848542
253.071496
242.831609
232.006585
221.474130
209.478833
196.020696
181.684854
166.763876
151.257761
138.969897
122.293509
105.031985
87.770461
72.849483
59.391345
43.007526
27.501411
11.702728
-3.289423
-18.241346
-32.595192
-46.051923
-61.003846
-73.862500
-87.319231
-98.981731
-111.840385
-123.801923
-136.062500
-150.117308
-162.676923
-172.246154
-186.899038
-201.850962
-215.606731
-225.175962
-234.446154
-243.716346
-253.285577
-262.256731
-269.732692
-276.311538
-283.488462
-290.366346
-296.945192
-302.626923
-303.823077
-308.009615
-308.009615
-307.710577
-309.803846
-307.710577
-306.813462
-308.308654
-302.925962
-304.421154
-302.925962
-299.636538
-295.749038
-289.469231
-284.684615
-277.208654
-269.433654
-260.462500
-252.089423
-241.922115
-232.053846
-219.793269
-207.831731
-194.674038
-180.021154
-163.873077
-150.416346
-135.464423
-119.615385
-99.878846
-84.627885
-67.881731
-52.331731
-38.276923
-20.035577
-4.186538
8.484478
23.698024
37.741298
50.906867
64.072437
78.115710
90.111007
102.691439
114.979304
126.682032
138.677328
151.257761
162.667921
172.907808
186.365945
201.579492
215.622766
224.984948
234.639699
243.416745
253.949200
262.726246
270.040452
277.062088
284.668862
291.983067
296.956726
301.930386
304.563500
306.318909
306.318909
307.196613
307.781750
308.074318
308.952023
306.904045
305.733772
303.393227
301.052681
299.297272
294.031044
289.642521
284.376294
277.062088
269.455315
261.555974
252.778928
242.539040
232.591722
220.596425
209.478833
194.850423
181.684854
166.178739
150.672625
137.799624
121.708373
103.276576
85.722484
72.556914
56.758231
42.714958
26.916275
11.117592
-4.186538
-17.942308
-33.791346
-46.350962
-60.106731
-74.161538
-87.020192
-99.280769
-111.840385
-125.297115
-136.959615
-151.014423
-163.574038
-173.143269
-186.899038
-203.346154
-216.204808
-226.372115
-234.446154
-244.015385
-253.584615
-262.555769
-270.031731
-277.507692
-284.684615
-291.263462
-297.244231
-303.823077
-305.318269
-307.112500
-310.102885
-308.607692
-307.112500
-308.607692
-307.411538
-307.112500
-306.215385
-304.122115
-301.729808
-299.935577
-295.150962
-288.572115
-283.189423
-276.909615
-269.732692
-259.565385
-251.790385
-241.623077
-232.053846
-220.690385
-206.934615
-194.674038
-179.722115
-162.975962
-149.818269
-135.464423
-118.120192
-100.476923
-84.328846
-68.180769
-52.331731
-37.080769
-21.829808
-5.681731
8.484478
22.820320
38.033866
51.492004
64.072437
77.238006
89.233302
102.106303
114.101599
127.267168
138.969897
151.842897
162.960489
172.615240
187.536218
201.872060
215.915334
225.570085
233.176858
245.172154
253.656632
263.311383
269.162747
277.939793
284.376294
292.275635
298.126999
300.760113
304.563500
306.611477
307.489182
308.366886
308.952023
308.074318
308.074318
307.196613
304.856068
303.100659
301.345249
299.004704
294.616181
289.642521
282.913452
276.769520
268.870179
260.970837
252.486359
242.539040
232.006585
220.011289
209.478833
195.142992
180.222013
166.178739
150.965193
138.384760
120.830668
103.569144
86.015052
71.971778
56.173095
41.544685
26.331138
8.484478
-4.186538
-18.839423
-33.791346
-46.949038
-61.601923
-74.759615
-87.020192
-99.878846
-111.840385
-124.100962
-137.856731
-150.715385
-163.574038
-173.143269
-188.095192
-203.944231
-216.204808
-226.671154
-233.848077
-244.314423
-254.182692
-262.256731
-270.330769
-276.311538
-283.787500
-291.562500
-296.646154
-303.225000
-306.813462
-306.813462
-308.607692
-306.813462
-308.906731
-308.308654
-306.215385
-308.906731
-305.019231
-305.019231
-302.626923
-298.739423
-295.450000
-288.871154
-282.591346
-276.909615
-269.433654
-259.864423
-250.295192
-241.324038
-230.857692
-219.494231
-206.635577
-193.178846
-179.423077
-163.275000
-149.220192
-134.268269
-118.419231
-99.280769
-83.132692
-66.984615
-52.331731
-37.379808
-20.334615
-5.681731
9.069614
25.160865
39.204139
50.029163
64.657573
78.115710
90.403575
102.984008
113.223895
126.682032
139.847601
152.135466
164.423330
174.078081
187.243650
202.749765
215.622766
226.155221
234.347131
244.294450
254.534337
263.311383
270.625588
278.232361
284.083725
292.568203
298.419567
303.100659
305.148636
307.489182
308.659454
307.489182
308.074318
308.659454
307.781750
306.026341
304.856068
302.515522
300.467545
298.126999
295.201317
288.764817
283.791157
276.476952
269.455315
259.800564
251.901223
242.539040
231.714017
220.303857
208.015992
194.850423
180.807150
165.886171
150.672625
138.384760
122.000941
104.154280
86.307620
72.264346
56.465663
43.007526
26.038570
8.777046
-4.186538
-19.138462
-33.193269
-48.444231
-61.003846
-75.357692
-87.618269
-99.579808
-112.438462
-124.100962
-138.155769
-151.014423
-163.574038
-174.040385
-188.095192
-202.748077
-216.503846
-226.671154
-234.446154
-244.912500
-253.883654
-262.555769
-271.227885
-276.610577
-285.581731
-291.562500
-297.244231
-302.925962
-305.019231
-307.112500
-306.813462
-307.112500
-308.308654
-306.813462
-308.009615
-307.411538
-306.215385
-305.617308
-302.327885
-299.636538
-293.655769
-287.675000
-283.189423
-276.012500
-269.134615
-258.967308
-250.893269
-239.828846
-230.259615
-218.896154
-207.233654
-192.281731
-180.021154
-162.975962
-148.921154
-133.969231
-118.120192
-99.579808
-83.431731
-67.582692
-52.630769
-36.183654
-20.932692
-5.681731
10.239887
25.453434
38.326435
51.784572
65.242709
78.408278
91.866416
103.276576
114.101599
126.096896
138.969897
152.428034
164.130762
175.248354
187.828786
203.627469
216.500470
225.277516
236.102540
244.294450
255.704610
264.189087
269.455315
279.110066
283.791157
292.860771
298.712135
302.222954
305.441204
306.318909
307.781750
308.366886
308.952023
308.659454
306.611477
307.196613
304.563500
302.808090
301.052681
299.004704
295.786453
289.935089
283.791157
276.476952
268.870179
259.800564
251.901223
242.539040
232.299153
221.181562
208.015992
194.850423
180.222013
165.886171
150.672625
137.507056
119.660395
102.984008
86.307620
71.386642
56.173095
42.422389
26.038570
9.069614
-3.289423
-18.839423
-34.090385
-48.145192
-61.900962
-75.955769
-87.319231
-100.177885
-112.139423
-124.400000
-137.557692
-151.612500
-163.574038
-173.442308
-188.095192
-203.944231
-216.204808
-226.372115
-234.446154
-244.314423
-254.481731
-262.555769
-271.227885
-277.806731
-285.581731
-290.964423
-297.842308
-302.327885
-303.823077
-305.916346
-307.710577
-307.710577
-309.504808
-307.411538
-308.308654
-306.514423
-305.916346
-304.421154
-300.832692
-298.739423
-293.057692
-287.675000
-282.890385
-276.012500
-268.835577
-258.967308
-251.192308
-240.725962
-231.156731
-218.597115
-205.738462
-192.281731
-178.825000
-163.275000
-148.024038
-133.371154
-116.325962
-98.682692
-81.637500
-67.582692
-51.135577
-36.781731
-19.437500
-5.382692
9.362183
24.575729
38.326435
50.321731
64.365005
78.408278
91.281279
104.154280
114.394167
127.559737
139.262465
152.428034
163.545626
174.078081
188.706491
204.212606
216.500470
226.447789
234.347131
245.464722
254.826905
263.603951
270.333020
278.524929
283.206021
293.153340
298.419567
303.100659
305.148636
306.611477
308.659454
307.781750
309.537159
308.074318
308.659454
306.904045
304.270931
303.685795
302.222954
299.297272
295.493885
290.812794
283.206021
277.062088
268.870179
260.678269
251.023518
242.246472
231.714017
220.596425
207.138288
194.265287
178.466604
165.886171
150.672625
136.921919
120.245532
102.398871
85.429915
70.216369
56.173095
40.666980
25.160865
9.069614
-6.279808
-18.540385
-36.183654
-48.145192
-62.798077
-75.656731
-88.515385
-100.476923
-112.737500
-125.297115
-138.155769
-151.911538
-162.975962
-173.741346
-189.590385
-204.243269
-217.999038
-227.568269
-235.044231
-244.912500
-253.883654
-263.751923
-270.330769
-277.208654
-284.684615
-291.861538
-296.945192
-300.832692
-304.421154
-306.514423
-307.411538
-308.009615
-307.710577
-309.803846
-308.308654
-307.112500
-305.318269
-303.823077
-302.327885
-298.141346
-293.954808
-287.375962
-282.591346
-276.012500
-267.938462
-259.864423
-249.996154
-239.828846
-229.362500
-218.896154
-206.037500
-190.487500
-178.825000
-161.779808
-148.622115
-133.670192
-117.522115
-100.177885
-81.637500
-66.087500
-51.434615
-35.884615
-20.035577
-4.784615
10.239887
25.453434
37.156162
51.784572
65.535278
78.993415
92.158984
103.569144
116.149577
126.974600
140.140169
152.135466
163.545626
173.200376
188.413923
204.505174
218.255880
226.447789
235.224835
244.294450
254.534337
263.311383
270.918156
277.939793
285.839135
292.860771
299.297272
303.100659
306.318909
307.196613
306.904045
308.659454
309.244591
307.489182
308.366886
306.611477
304.270931
303.393227
301.930386
298.712135
294.908749
289.057385
284.083725
277.647225
268.870179
259.507996
251.316087
242.539040
231.421449
219.133584
206.845720
194.265287
179.051740
165.008467
150.672625
135.459078
119.952963
102.106303
85.137347
69.923801
55.002822
40.081844
22.820320
7.606773
-6.279808
-20.334615
-35.585577
-49.341346
-61.302885
-76.254808
-88.515385
-100.775962
-113.634615
-125.596154
-139.351923
-153.406731
-165.667308
-174.937500
-190.487500
-204.841346
-216.204808
-227.269231
-235.343269
-245.510577
-255.079808
-262.555769
-271.526923
-276.909615
-284.983654
-291.861538
-298.440385
-302.327885
-305.617308
-306.215385
-309.205769
-308.009615
-308.009615
-308.308654
-308.607692
-306.813462
-305.617308
-302.626923
-301.131731
-297.244231
-293.057692
-287.974038
-282.591346
-274.517308
-267.938462
-258.967308
-249.398077
-239.828846
-228.764423
-218.597115
-207.233654
-191.982692
-178.226923
-162.377885
-148.622115
-133.969231
-115.727885
-98.383654
-81.637500
-66.685577
-52.032692
-35.585577
-19.736538
-4.485577
10.825024
24.868297
38.619003
51.492004
66.705550
78.993415
90.988711
103.861712
114.686736
126.974600
139.847601
153.013170
165.886171
174.663217
188.999059
204.212606
217.085607
227.032926
235.224835
245.464722
255.119473
264.481656
270.918156
278.524929
284.961430
291.983067
298.419567
302.808090
305.148636
307.489182
308.074318
307.781750
308.366886
309.244591
306.318909
306.611477
305.441204
302.515522
300.467545
298.126999
295.201317
288.472248
281.743180
276.476952
267.407338
259.507996
250.730950
241.953904
230.543744
219.718721
207.430856
193.095014
179.636877
164.423330
150.380056
136.629351
119.952963
102.398871
85.429915
71.386642
55.295390
40.081844
23.990593
8.191910
-4.784615
-20.035577
-34.090385
-48.444231
-62.200000
-75.955769
-87.917308
-100.177885
-111.840385
-124.699038
-137.557692
-150.715385
-163.574038
-174.040385
-188.394231
-205.738462
-217.101923
-225.475000
-235.044231
-244.613462
-254.780769
-262.256731
-270.330769
-276.610577
-284.385577
-291.861538
-297.543269
-303.524038
-305.916346
-306.813462
-307.710577
-307.112500
-307.710577
-306.514423
-306.514423
-307.411538
-305.019231
-303.524038
-301.729808
-298.141346
-295.150962
-287.375962
-282.591346
-274.816346
-267.639423
-258.967308
-249.398077
-240.127885
-229.661538
-217.400962
-203.944231
-191.982692
-177.329808
-161.480769
-147.126923
-132.175000
-116.625000
-97.486538
-82.833654
-66.685577
-51.434615
-36.781731
-18.540385
-3.289423
11.410160
25.160865
39.496707
53.247413
64.950141
78.408278
92.451552
103.861712
114.394167
127.559737
139.555033
152.428034
165.886171
174.370649
188.999059
204.797742
217.670743
227.618062
235.809972
245.464722
255.704610
264.189087
272.380997
278.524929
286.131703
293.738476
298.712135
302.808090
305.441204
305.733772
307.489182
308.074318
309.537159
307.781750
308.366886
308.366886
304.563500
302.222954
301.345249
298.712135
295.201317
289.349953
283.498589
276.184384
268.577611
260.385701
251.316087
241.953904
229.666040
220.011289
206.845720
192.509878
179.051740
164.423330
148.039511
136.044214
117.612418
102.106303
84.259643
69.923801
55.880527
39.789276
23.698024
7.314205
-7.775000
-20.932692
-35.286538
-48.743269
-62.499038
-77.750000
-90.907692
-101.972115
-113.335577
-125.895192
-139.950000
-154.004808
-164.471154
-176.133654
-189.889423
-204.542308
-216.802885
-226.970192
-235.642308
-244.912500
-255.079808
-263.452885
-270.629808
-277.806731
-284.086538
-292.459615
-299.038462
-303.823077
-305.916346
-307.710577
-308.308654
-308.009615
-309.205769
-307.411538
-307.411538
-307.112500
-304.421154
-302.925962
-301.430769
-297.842308
-293.954808
-288.273077
-281.694231
-275.414423
-267.639423
-257.173077
-249.697115
-240.127885
-229.063462
-217.101923
-203.944231
-192.580769
-176.133654
-161.480769
-148.024038
-132.773077
-116.325962
-98.682692
-81.637500
-65.489423
-50.238462
-34.987500
-18.839423
-2.691346
12.287865
26.916275
39.496707
53.539981
66.705550
78.993415
91.866416
103.276576
114.979304
127.559737
139.555033
152.720602
164.715898
174.370649
188.999059
204.212606
217.085607
227.618062
235.809972
246.049859
255.412041
264.481656
272.088429
278.817498
285.839135
292.860771
298.419567
301.345249
304.270931
306.026341
306.904045
307.781750
307.196613
308.659454
308.952023
306.318909
306.611477
303.685795
301.637817
298.419567
293.738476
289.057385
283.206021
276.184384
269.455315
260.093133
251.023518
241.076199
230.836312
219.718721
205.382879
192.802446
179.051740
162.375353
150.087488
134.288805
118.490122
100.350894
83.381938
68.168391
56.173095
39.204139
23.990593
8.484478
-7.176923
-21.530769
-36.183654
-49.341346
-63.097115
-76.553846
-90.010577
-101.374038
-114.531731
-126.792308
-139.650962
-152.808654
-164.172115
-174.339423
-188.992308
-205.738462
-217.400962
-226.970192
-235.343269
-246.407692
-255.677885
-264.050962
-270.928846
-277.806731
-284.385577
-293.655769
-297.543269
-302.327885
-304.122115
-307.112500
-308.009615
-308.308654
-308.607692
-307.411538
-307.411538
-305.019231
-305.617308
-302.925962
-299.636538
-296.945192
-291.861538
-287.375962
-281.993269
-273.919231
-266.742308
-257.771154
-249.996154
-239.230769
-228.166346
-217.400962
-204.841346
-191.683654
-176.432692
-162.078846
-146.827885
-133.371154
-116.026923
-98.084615
-80.740385
-66.386538
-51.733654
-34.987500
-19.736538
-2.990385
11.995296
25.746002
39.789276
53.539981
66.120414
79.285983
92.451552
103.861712
114.979304
128.144873
141.603010
153.890875
164.130762
174.663217
189.876764
204.797742
218.255880
227.032926
235.224835
246.927563
256.874882
263.603951
271.795861
277.939793
286.716839
294.031044
299.297272
302.808090
305.441204
306.611477
309.244591
309.537159
309.244591
308.074318
308.074318
306.611477
304.856068
303.393227
300.467545
299.004704
294.323612
288.764817
282.913452
277.647225
268.285042
260.093133
250.730950
241.661336
231.128881
