-85.844317
-88.517670
-113.765998
-127.132760
-139.905444
-152.084050
-164.856734
-177.926457
-192.778415
-207.927412
-217.432665
-227.829035
-237.334288
-247.136581
-256.938873
-264.067813
-271.493792
-278.028653
-286.048711
-292.286533
-297.039160
-300.603629
-302.979943
-311.000000
-304.762178
-305.059217
-302.088825
-305.950334
-305.653295
-301.494747
-301.197708
-297.633238
-294.662846
-290.207259
-286.048711
-280.999045
-272.087870
-261.394460
-257.235912
-248.621777
-235.849093
-226.937918
-212.977077
-198.125119
-186.540592
-171.985673
-158.618911
-139.905444
-128.320917
-107.528176
-92.973257
-72.774594
-58.813754
-45.744031
-28.812798
-10.396371
0.292019
19.273239
33.582160
42.342723
60.739906
72.420657
81.181221
98.702347
105.126761
113.303286
132.868545
144.257277
157.398122
162.946479
168.786854
190.104225
207.333333
213.465728
230.694836
234.491080
248.800000
256.392488
260.772770
270.993427
278.001878
285.010329
293.186854
294.354930
300.195305
303.699531
303.699531
303.991549
308.079812
305.159624
308.955869
311.000000
306.327700
306.911737
307.203756
300.195305
301.071362
297.859155
289.682629
284.718310
281.214085
270.409390
261.356808
254.640376
244.419718
235.367136
222.226291
212.589671
195.360563
183.679812
167.910798
154.477934
141.629108
127.612207
108.630986
91.401878
78.845070
64.828169
47.599061
33.582160
14.892958
1.752113
-14.257880
-26.139446
-41.882521
-58.219675
-69.210124
-83.765043
-95.646609
-108.419293
-120.894938
-133.370583
-147.034384
-158.618911
-171.094556
-181.787966
-199.016237
-212.085960
-223.670487
-233.175740
-242.086915
-250.701051
-263.176695
-269.414518
-274.761223
-282.781280
-289.613181
-296.445081
-300.603629
-302.682904
-305.059217
-305.950334
-309.514804
-308.623687
-308.920726
-306.544413
-304.762178
-305.059217
-304.168099
-302.385864
-297.039160
-294.365807
-288.722063
-281.890162
-276.246418
-268.226361
-257.829990
-250.404011
-240.007641
-228.720153
-215.056351
-203.471824
-189.510984
-173.470869
-158.618911
-142.875836
-128.617956
-112.874881
-94.458453
-77.230181
-61.487106
-46.932187
-31.783190
-15.446036
0.292019
14.892958
29.201878
42.634742
55.483568
69.792488
82.933333
94.322066
105.710798
117.683568
128.780282
142.797183
153.893897
166.742723
176.087324
188.644131
201.784977
216.969953
227.190610
236.827230
246.171831
253.180282
263.400939
269.533333
277.417840
282.674178
289.682629
296.107042
302.239437
306.035681
303.699531
306.911737
308.663850
306.619718
307.203756
307.203756
306.911737
305.451643
302.823474
301.363380
298.735211
293.478873
290.850704
282.382160
276.541784
269.825352
260.480751
253.180282
243.543662
231.278873
221.934272
209.961502
196.528638
183.095775
168.786854
153.601878
142.213146
125.276056
108.046948
91.693897
75.632864
62.200000
45.846948
30.953991
15.769014
0.584038
-13.366762
-27.921681
-43.070678
-55.546323
-70.398281
-83.468004
-94.755492
-108.419293
-120.597899
-132.776504
-146.143266
-158.618911
-169.609360
-184.164279
-201.095511
-213.868195
-222.482330
-232.284623
-243.572111
-252.483286
-261.097421
-269.414518
-275.949379
-282.187202
-290.801337
-295.851003
-301.791786
-301.494747
-304.465138
-306.544413
-307.435530
-307.435530
-306.544413
-306.544413
-305.950334
-303.871060
-304.762178
-299.712512
-297.633238
-292.286533
-289.019102
-281.593123
-275.652340
-267.929322
-257.829990
-249.512894
-239.413563
-227.829035
-216.838586
-202.877746
-189.808023
-176.144222
-161.589303
-146.737345
-130.697230
-115.251194
-97.131805
-81.388730
-64.754537
-49.308500
-32.674308
-17.822350
-2.376313
13.140845
26.865728
42.050704
53.731455
67.456338
80.597183
92.861972
105.710798
115.931455
127.612207
141.337089
152.141784
164.114554
175.503286
188.060094
203.537089
216.677934
225.438498
233.615023
244.419718
254.640376
261.940845
269.533333
276.541784
284.426291
292.310798
297.567136
302.239437
303.991549
305.451643
305.451643
307.787793
307.203756
307.203756
307.495775
306.035681
304.283568
302.823474
299.319249
298.735211
294.062911
288.222535
283.842254
276.249765
269.533333
259.896714
251.720188
241.791549
232.154930
220.766197
208.501408
196.236620
181.051643
166.158685
152.725822
139.292958
122.647887
106.002817
90.233803
75.048826
60.155869
45.262911
29.493897
13.140845
-2.079274
-16.634193
-32.080229
-45.149952
-59.704871
-72.180516
-84.062082
-98.022923
-110.201528
-122.974212
-135.449857
-150.004776
-162.183381
-171.985673
-185.352436
-201.689589
-215.650430
-226.046800
-233.472779
-244.166189
-253.671442
-262.879656
-269.414518
-274.464183
-284.860554
-292.286533
-297.039160
-302.385864
-304.762178
-305.356256
-306.544413
-307.435530
-307.138491
-304.762178
-306.544413
-305.950334
-304.168099
-301.197708
-299.712512
-298.821394
-294.068768
-286.642789
-281.593123
-275.652340
-267.335244
-257.532951
-249.512894
-237.928367
-229.908309
-215.056351
-204.957020
-190.402101
-177.035339
-161.292264
-144.955110
-132.182426
-115.251194
-97.428844
-81.685769
-63.863419
-49.011461
-34.753582
-18.416428
-2.376313
12.556808
26.281690
40.590610
53.731455
66.872300
80.013146
92.569953
104.542723
116.223474
128.196244
140.169014
153.601878
164.698592
174.335211
188.936150
203.537089
215.801878
224.854460
233.323005
244.419718
254.056338
263.400939
270.117371
277.709859
284.718310
290.266667
297.859155
301.363380
303.699531
305.743662
307.495775
308.079812
306.619718
308.079812
307.495775
306.327700
303.699531
302.239437
299.903286
296.691080
294.354930
288.806573
282.090141
275.665728
267.489202
259.604695
250.260094
240.039437
230.986854
220.182160
206.749296
195.068545
180.467606
166.742723
150.389671
138.708920
121.479812
105.126761
88.773709
72.712676
58.987793
43.510798
26.573709
10.220657
-4.158548
-17.525310
-33.565425
-46.041070
-60.001910
-75.150907
-86.735435
-98.914040
-112.280802
-124.459408
-137.232092
-151.192932
-163.074499
-172.876791
-186.540592
-203.768863
-215.650430
-227.234957
-233.472779
-244.166189
-253.374403
-263.176695
-270.602674
-275.949379
-283.672397
-291.395415
-298.524355
-302.088825
-302.682904
-305.356256
-308.920726
-308.326648
-308.326648
-307.138491
-307.732569
-305.653295
-304.465138
-303.276982
-301.197708
-297.336199
-294.662846
-288.722063
-282.781280
-275.652340
-266.741165
-256.047755
-249.215855
-238.819484
-227.829035
-216.838586
-203.471824
-189.808023
-176.738300
-159.510029
-146.440306
-132.182426
-114.360076
-95.646609
-81.091691
-65.348615
-48.714422
-34.456543
-17.228271
-1.782235
12.556808
26.865728
40.590610
55.191549
67.456338
80.305164
94.322066
105.710798
115.931455
128.488263
142.213146
153.893897
166.742723
175.795305
189.520188
205.581221
216.093897
226.022535
233.323005
244.711737
254.640376
263.400939
269.825352
278.001878
284.134272
292.018779
297.275117
302.239437
303.407512
306.035681
306.327700
305.743662
306.327700
306.619718
307.787793
305.743662
302.531455
301.655399
299.611268
297.567136
292.894836
288.222535
282.382160
275.957746
267.781221
258.728638
250.552113
240.039437
229.818779
218.722066
206.457277
194.484507
179.883568
165.282629
150.973709
137.540845
120.311737
103.666667
87.021596
73.588732
57.235681
43.218779
26.573709
10.512676
-4.455587
-18.416428
-32.674308
-46.338109
-60.298949
-74.259790
-86.735435
-100.102197
-111.686724
-123.271251
-136.340974
-150.301815
-162.777459
-171.985673
-188.916905
-202.877746
-216.244508
-226.046800
-234.363897
-245.651385
-254.562560
-262.879656
-270.008596
-276.840497
-283.969436
-291.395415
-296.742120
-301.494747
-302.979943
-305.059217
-307.732569
-308.029608
-305.653295
-306.247373
-306.841452
-305.950334
-303.276982
-300.900669
-300.009551
-296.445081
-291.692455
-286.939828
-279.810888
-274.464183
-265.850048
-257.532951
-249.512894
-239.413563
-228.126074
-217.135626
-204.957020
-189.510984
-176.144222
-160.698185
-146.737345
-132.479465
-114.063037
-97.428844
-81.091691
-65.051576
-49.605540
-34.753582
-18.119389
-2.079274
11.680751
25.989671
40.882629
53.439437
65.704225
80.305164
91.985915
104.542723
116.223474
128.488263
140.461033
153.601878
164.114554
174.919249
188.644131
203.829108
216.677934
225.730516
233.907042
245.003756
255.224413
265.445070
271.577465
276.833803
286.470423
292.310798
298.443192
301.655399
304.575587
306.619718
306.327700
307.203756
306.619718
307.787793
306.327700
304.283568
303.699531
303.407512
300.195305
298.443192
293.478873
288.222535
281.506103
275.081690
266.613146
257.852582
250.552113
240.039437
229.818779
218.430047
205.289202
193.608451
179.007512
164.114554
148.637559
136.956808
119.435681
101.914554
84.685446
71.252582
56.067606
40.590610
25.113615
8.760563
-6.831901
-20.198663
-34.753582
-47.823305
-61.784145
-75.447947
-89.408787
-101.587393
-113.468959
-126.241643
-139.311366
-151.787011
-164.262655
-174.659026
-188.619866
-204.659981
-217.432665
-226.343840
-235.552053
-245.354346
-255.156638
-263.770774
-269.117479
-278.622732
-283.375358
-292.286533
-297.633238
-300.009551
-304.762178
-306.247373
-305.950334
-306.247373
-307.435530
-309.217765
-307.435530
-306.247373
-304.465138
-303.276982
-300.009551
-298.227316
-292.880611
-287.830946
-282.781280
-275.058262
-267.632283
-256.938873
-247.136581
-237.631328
-228.126074
-215.353391
-201.689589
-189.808023
-173.470869
-158.915950
-145.252149
-130.103152
-113.468959
-94.161414
-80.200573
-65.348615
-48.417383
-34.159503
-16.634193
-1.782235
12.264789
26.573709
41.174648
54.607512
68.624413
80.013146
94.322066
105.710798
117.099531
129.656338
143.089202
154.185915
167.034742
175.503286
189.812207
205.581221
216.969953
226.314554
235.951174
245.003756
255.516432
264.276995
271.285446
278.001878
285.010329
292.310798
298.151174
301.363380
304.575587
305.159624
306.327700
307.787793
306.619718
306.911737
307.203756
306.327700
304.867606
302.823474
300.779343
298.151174
293.478873
287.638498
282.674178
275.665728
266.905164
257.560563
248.215962
239.747418
228.942723
217.553991
204.413146
193.024413
179.591549
163.822535
149.805634
135.496714
118.851643
101.330516
85.853521
70.376526
56.067606
40.298592
24.529577
8.760563
-5.346705
-19.010506
-35.050621
-48.417383
-60.893028
-75.150907
-88.220630
-99.805158
-112.577841
-124.459408
-138.717287
-150.598854
-162.183381
-172.876791
-189.510984
-205.551098
-216.541547
-225.452722
-234.660936
-245.354346
-254.562560
-263.770774
-271.493792
-276.840497
-284.266476
-291.098376
-297.336199
-301.494747
-303.574021
-305.356256
-306.247373
-307.435530
-307.138491
-307.732569
-308.623687
-305.950334
-304.168099
-301.197708
-299.415473
-295.256925
-291.989494
-286.048711
-280.107927
-274.464183
-265.850048
-256.641834
-246.839542
-237.334288
-227.234957
-215.056351
-203.174785
-189.213945
-173.767908
-158.915950
-146.440306
-130.697230
-114.063037
-96.240688
-80.794651
-64.457498
-48.714422
-34.159503
-17.525310
-2.376313
12.264789
26.865728
40.590610
53.439437
67.164319
79.429108
91.985915
105.418779
114.763380
127.904225
141.337089
153.309859
166.742723
175.503286
190.104225
205.873239
216.677934
226.022535
235.367136
247.047887
255.516432
265.153052
270.701408
278.293897
284.426291
294.062911
299.027230
301.655399
303.115493
306.035681
307.203756
307.495775
308.663850
307.203756
306.911737
307.203756
303.699531
301.071362
300.487324
297.275117
293.186854
286.470423
282.090141
273.913615
266.029108
258.728638
249.092019
238.579343
227.482629
217.553991
206.165258
190.688263
177.839437
163.822535
148.637559
135.204695
116.807512
101.038498
83.809390
70.084507
54.899531
39.714554
23.653521
7.008451
-8.020057
-21.980898
-35.347660
-48.714422
-63.269341
-78.121299
-89.705826
-101.587393
-113.171920
-125.647564
-139.014327
-150.895893
-163.371538
-174.064947
-189.213945
-204.362942
-215.353391
-226.343840
-235.255014
-245.057307
-254.859599
-262.285578
-269.711557
-276.840497
-284.563515
-291.989494
-298.821394
-303.574021
-304.168099
-306.544413
-306.544413
-305.950334
-306.841452
-305.950334
-305.653295
-305.653295
-302.979943
-302.385864
-300.009551
-295.851003
-291.989494
-286.345750
-279.810888
-273.276027
-265.850048
-255.750716
-246.245463
-236.443171
-227.829035
-215.947469
-201.689589
-188.916905
-174.064947
-159.212989
-144.361032
-129.806113
-112.280802
-93.864374
-79.903534
-63.269341
-48.417383
-33.565425
-15.148997
-0.891117
13.140845
26.865728
41.466667
54.607512
66.872300
81.473239
93.738028
105.418779
116.515493
129.072300
142.213146
155.353991
166.450704
177.547418
191.856338
207.041315
219.598122
227.482629
236.827230
247.631925
256.976526
264.569014
271.869484
279.753991
285.886385
294.062911
299.611268
303.115493
305.159624
306.327700
306.911737
307.203756
307.787793
307.203756
306.327700
306.035681
303.115493
302.531455
300.487324
297.275117
294.062911
287.054460
280.338028
274.497653
263.984977
256.392488
248.800000
238.579343
227.482629
215.509859
203.829108
190.688263
176.671362
161.486385
146.301408
133.452582
115.347418
99.286385
82.057277
66.288263
53.147418
37.086385
21.901408
5.256338
-8.911175
-23.169054
-37.129895
-51.387775
-64.754537
-78.715377
-90.299904
-104.260745
-115.251194
-127.132760
-141.093601
-152.678128
-164.856734
-177.035339
-190.699140
-207.333333
-217.729704
-228.126074
-235.552053
-246.839542
-255.750716
-262.879656
-271.790831
-278.622732
-285.157593
-293.177650
-296.742120
-302.682904
-302.385864
-304.762178
-306.247373
-307.435530
-307.732569
-305.950334
-306.841452
-306.544413
-302.682904
-301.791786
-298.524355
-295.553964
-290.207259
-284.266476
-278.325692
-271.196753
-262.582617
-254.562560
-247.136581
-235.849093
-224.264565
-214.165234
-201.689589
-187.134670
-173.470869
-158.618911
-145.252149
-130.994269
-111.389685
-94.458453
-78.121299
-62.972302
-47.823305
-31.486151
-16.634193
-0.594078
13.724883
28.325822
41.174648
55.191549
67.456338
82.057277
93.738028
105.710798
117.099531
130.240376
142.797183
155.938028
164.990610
177.255399
191.564319
207.333333
219.014085
227.482629
236.243192
245.879812
256.392488
265.153052
273.037559
279.461972
287.054460
293.186854
299.319249
302.531455
304.575587
306.035681
306.911737
307.495775
306.619718
306.619718
307.787793
305.743662
304.575587
302.531455
299.611268
296.983099
292.602817
286.470423
279.753991
272.453521
265.737089
256.976526
247.923944
236.827230
226.606573
216.385915
202.953052
188.936150
175.211268
159.442254
145.425352
131.700469
113.887324
97.826291
81.473239
66.580282
51.687324
35.626291
20.733333
4.672300
-10.099331
-23.466094
-37.426934
-52.278892
-65.051576
-80.200573
-92.379179
-104.557784
-116.142311
-128.914995
-142.281757
-154.757402
-167.233047
-177.926457
-193.372493
-207.630372
-219.808978
-228.126074
-237.037249
-247.730659
-257.532951
-264.958930
-271.790831
-278.325692
-286.642789
-292.880611
-298.821394
-301.791786
-304.168099
-306.841452
-307.138491
-305.950334
-308.029608
-308.029608
-306.841452
-305.950334
-305.059217
-300.900669
-299.118434
-294.068768
-290.801337
-284.563515
-279.513849
-271.790831
-264.364852
-254.859599
-246.245463
-235.255014
-225.749761
-212.977077
-201.986628
-188.025788
-171.985673
-158.321872
-142.578797
-128.320917
-109.607450
-92.973257
-77.230181
-63.269341
-48.120344
-30.297994
-16.337154
1.168075
15.184977
28.909859
41.466667
55.483568
69.208451
81.765258
94.906103
106.002817
117.391549
130.240376
143.381221
156.814085
166.158685
177.547418
193.024413
207.041315
219.306103
227.774648
236.535211
247.923944
256.100469
265.737089
273.329577
278.001878
287.054460
292.310798
299.319249
301.947418
304.575587
307.203756
305.743662
306.911737
307.495775
306.327700
307.495775
306.619718
303.115493
301.947418
299.027230
295.815023
290.850704
285.302347
279.753991
272.453521
264.276995
256.976526
247.923944
237.995305
226.314554
214.633803
203.245070
188.936150
175.503286
160.026291
145.425352
131.992488
113.595305
97.826291
80.889202
66.288263
51.687324
34.750235
19.565258
4.672300
-10.693410
-23.763133
-38.615091
-52.278892
-66.536772
-79.309456
-92.676218
-103.963706
-115.845272
-128.914995
-140.796562
-155.054441
-166.044890
-177.926457
-192.778415
-207.630372
-219.511939
-227.234957
-236.740210
-246.839542
-256.047755
-264.958930
-271.790831
-279.216810
-286.048711
-293.771729
-297.633238
-302.088825
-305.059217
-305.059217
-306.841452
-308.029608
-307.138491
-306.841452
-305.059217
-304.465138
-302.682904
-301.197708
-296.148042
-295.256925
-289.613181
-284.563515
-278.919771
-270.305635
-263.473734
-254.562560
-247.433620
-236.146132
-224.561605
-211.491882
-201.392550
-186.837631
-171.391595
-157.727794
-142.578797
-128.023878
-110.201528
-92.082139
-77.230181
-62.972302
-46.932187
-31.189112
-13.663801
0.584038
14.892958
28.617840
41.466667
56.943662
70.960563
82.349296
95.782160
106.586854
117.099531
129.948357
143.965258
156.522066
167.910798
179.299531
192.440376
209.085446
219.306103
228.942723
237.703286
247.631925
257.852582
265.445070
273.621596
279.753991
287.346479
296.107042
299.903286
302.531455
303.407512
306.619718
308.079812
307.203756
308.663850
308.371831
307.203756
304.867606
304.283568
300.779343
299.903286
297.275117
291.726761
286.178404
279.461972
272.453521
264.569014
255.808451
248.507981
237.995305
226.606573
214.341784
202.661033
189.520188
174.627230
158.858216
145.425352
130.532394
114.471362
96.950235
80.597183
65.412207
50.811268
35.334272
20.733333
3.212207
-9.802292
-23.466094
-38.318052
-53.170010
-65.645654
-78.715377
-91.785100
-104.260745
-116.142311
-128.617956
-141.390640
-154.757402
-166.044890
-177.926457
-193.372493
-207.333333
-218.323782
-229.908309
-237.037249
-247.433620
-257.235912
-265.850048
-272.087870
-279.810888
-286.345750
-293.771729
-299.415473
-303.574021
-306.247373
-306.247373
-306.247373
-308.029608
-306.247373
-306.247373
-305.653295
-304.465138
-303.574021
-300.900669
-298.821394
-295.553964
-290.207259
-283.969436
-277.137536
-271.790831
-262.285578
-253.671442
-244.760267
-234.957975
-225.452722
-212.085960
-197.828080
-185.649475
-170.797517
-155.351480
-142.875836
-126.241643
-109.013372
-91.488061
-75.744986
-60.595989
-46.041070
-30.892073
-13.663801
2.044131
15.476995
29.201878
43.218779
57.235681
69.500469
82.641315
96.658216
107.462911
119.727700
131.116432
143.965258
157.106103
169.662911
179.591549
194.484507
210.253521
221.058216
230.110798
238.579343
248.800000
260.188732
266.613146
273.329577
281.506103
288.222535
294.938967
301.947418
304.283568
305.743662
307.495775
307.203756
307.787793
308.079812
306.911737
307.203756
304.867606
304.283568
303.699531
300.487324
295.815023
292.018779
286.178404
280.046009
273.329577
264.861033
255.808451
245.587793
236.535211
225.146479
214.049765
200.032864
187.184038
174.335211
157.982160
144.257277
129.948357
111.843192
96.074178
79.137089
63.952113
49.935211
33.582160
17.813146
3.212207
-12.772684
-27.624642
-40.397326
-54.655205
-68.319007
-82.873926
-95.943649
-106.340019
-118.815664
-131.291309
-144.361032
-157.430755
-169.015282
-179.411652
-194.263610
-210.006686
-220.700096
-229.017192
-239.116523
-248.621777
-258.127030
-264.958930
-271.790831
-279.810888
-288.127985
-294.068768
-298.524355
-302.979943
-304.465138
-305.356256
-305.950334
-306.247373
-306.841452
-307.138491
-306.544413
-305.356256
-302.385864
-301.494747
-297.633238
-294.959885
-289.316141
-285.157593
-278.622732
-269.711557
-262.879656
-253.968481
-244.463228
-234.660936
-222.185291
-212.085960
-198.125119
-184.758357
-170.203438
-155.054441
-141.390640
-125.647564
-106.934097
-90.596944
-74.259790
-57.922636
-44.258835
-27.921681
-11.287488
2.336150
17.813146
31.246009
45.554930
58.695775
71.836620
84.393427
96.950235
110.091080
120.895775
133.160563
146.301408
158.858216
168.202817
181.051643
195.944601
210.837559
221.350235
230.110798
240.039437
249.676056
259.604695
266.613146
275.081690
280.922066
289.098592
295.523005
299.903286
303.991549
305.743662
306.035681
306.619718
309.831925
308.371831
307.787793
307.787793
304.867606
303.115493
300.779343
297.859155
297.275117
291.434742
285.302347
280.046009
272.453521
263.400939
254.640376
246.755869
236.243192
224.562441
213.173709
201.200939
186.892019
172.583099
158.274178
143.089202
128.196244
110.967136
94.614085
78.261033
63.660094
48.183099
32.998122
16.353052
0.584038
-12.475645
-27.030564
-41.288443
-54.952245
-68.319007
-81.982808
-94.161414
-106.042980
-118.518625
-130.994269
-144.361032
-155.945559
-167.530086
-180.302770
-194.560649
-210.897803
-220.997135
-229.611270
-238.522445
-247.433620
-257.829990
-266.741165
-273.276027
-280.999045
-287.533906
-295.851003
-299.415473
-304.465138
-305.653295
-305.356256
-307.435530
-308.029608
-306.544413
-305.950334
-306.247373
-302.979943
-302.682904
-301.791786
-297.633238
-294.959885
-288.722063
-283.969436
-277.731614
-270.602674
-261.394460
-251.295129
-243.572111
-234.363897
-223.670487
-210.600764
-198.125119
-184.461318
-169.015282
-153.866285
-141.984718
-124.459408
-108.122254
-89.111748
-74.259790
-59.407832
-43.664756
-27.921681
-13.069723
3.796244
17.521127
31.538028
46.430986
59.279812
72.712676
85.269484
98.118310
108.046948
120.311737
133.160563
145.425352
158.274178
168.494836
180.467606
195.652582
210.545540
221.350235
230.402817
241.207512
250.844131
260.480751
268.365258
274.205634
282.674178
288.222535
296.983099
300.779343
304.283568
306.327700
308.079812
309.247887
306.327700
307.495775
306.327700
306.911737
306.035681
303.407512
302.823474
299.319249
295.230986
290.266667
285.302347
279.753991
271.869484
264.276995
254.348357
244.127700
234.783099
223.394366
212.589671
198.864789
186.015962
169.954930
155.646009
143.089202
127.320188
110.091080
93.153991
77.676995
62.200000
46.723005
31.830047
15.184977
-0.000000
-14.554919
-29.703916
-43.367717
-57.328558
-69.804202
-83.170965
-95.349570
-106.934097
-119.706781
-133.370583
-145.549188
-158.321872
-169.015282
-179.708691
-195.748806
-210.006686
-220.106017
-229.908309
-240.601719
-250.701051
-260.206304
-266.444126
-273.573066
-279.810888
-288.127985
-294.959885
-299.712512
-302.682904
-303.871060
-305.950334
-306.247373
-306.841452
-307.435530
-307.435530
-307.732569
-304.762178
-302.385864
-300.603629
-297.039160
-294.068768
-287.830946
-283.375358
-276.246418
-269.711557
-260.503343
-253.374403
-242.978032
-233.472779
-222.482330
-210.600764
-197.531041
-182.976122
-168.124164
-153.866285
-137.826170
-124.756447
-106.340019
-90.596944
-72.774594
-57.328558
-43.367717
-27.624642
-10.693410
3.504225
17.813146
32.122066
46.430986
59.571831
72.128638
85.269484
97.242254
109.215023
121.187793
134.036620
146.593427
159.150235
169.662911
181.635681
197.404695
210.253521
221.934272
230.402817
240.331455
251.136150
261.064789
267.781221
275.957746
281.506103
290.266667
295.815023
299.903286
302.239437
304.283568
306.619718
306.035681
308.079812
308.371831
307.495775
307.495775
304.575587
303.699531
301.071362
298.151174
296.399061
290.558685
283.842254
278.585915
270.993427
262.232864
253.764319
245.003756
234.199061
223.686385
212.297653
199.156808
186.892019
171.415023
156.230047
142.213146
126.444131
109.215023
93.153991
78.261033
62.200000
47.599061
31.538028
15.184977
-0.594078
-14.851958
-27.921681
-41.882521
-55.249284
-70.695320
-82.873926
-95.646609
-106.637058
-118.815664
-131.885387
-145.252149
-157.727794
-167.530086
-180.599809
-197.234002
-210.303725
-220.997135
-229.908309
-239.413563
-249.512894
-259.018147
-266.741165
-273.870105
-280.404967
-288.127985
-294.068768
-300.306590
-302.979943
-306.841452
-305.950334
-306.247373
-305.950334
-306.247373
-305.059217
-305.356256
-304.465138
-302.385864
-301.197708
-297.336199
-292.583572
-289.613181
-283.672397
-276.246418
-269.117479
-260.503343
-250.701051
-240.601719
-231.987584
-221.591213
-208.521490
-195.748806
-183.273161
-167.827125
-151.192932
-138.717287
-122.677173
-104.260745
-87.923591
-73.368672
-57.031519
-42.179561
-26.139446
-11.287488
5.256338
18.981221
32.998122
46.430986
60.155869
74.464789
86.729577
100.162441
110.675117
122.939906
136.080751
148.929577
160.902347
170.246948
182.803756
198.572770
212.881690
222.810329
231.862911
241.499531
251.720188
261.356808
268.949296
276.249765
283.258216
290.558685
298.443192
301.947418
304.575587
305.451643
307.203756
310.123944
308.663850
307.495775
308.371831
306.619718
306.327700
304.867606
301.363380
299.611268
296.691080
290.558685
285.302347
278.001878
270.993427
262.524883
253.472300
244.127700
233.907042
223.394366
211.129577
196.820657
186.307981
169.370892
154.477934
141.045070
124.107981
108.046948
90.233803
75.924883
60.739906
45.846948
30.661972
14.892958
-2.079274
-15.743075
-30.000955
-44.852913
-58.516714
-71.586437
-84.953200
-96.834766
-109.904489
-121.489016
-133.667622
-146.440306
-159.807068
-169.609360
-182.085005
-198.125119
-212.680038
-223.967526
-231.393505
-240.304680
-250.106972
-260.503343
-268.226361
-272.384909
-281.890162
-288.127985
-294.959885
-302.979943
-305.059217
-305.059217
-306.544413
-307.138491
-306.544413
-306.841452
-305.653295
-306.841452
-305.356256
-302.385864
-301.791786
-298.227316
-293.474690
-288.127985
-282.187202
-277.731614
-268.523400
-262.582617
-250.404011
-241.789876
-231.393505
-220.997135
-209.115568
-195.154728
-181.787966
-166.638968
-150.598854
-138.123209
-120.894938
-103.963706
-85.547278
-72.477555
-54.952245
-40.100287
-24.654250
-8.317096
6.132394
20.733333
35.334272
47.891080
61.615962
74.756808
87.313615
99.870423
111.551174
124.400000
136.664789
149.513615
161.486385
171.123005
183.679812
199.448826
213.465728
223.978404
232.154930
243.251643
252.304225
262.524883
269.241315
275.665728
282.382160
290.266667
296.691080
301.655399
303.699531
305.451643
308.079812
306.911737
306.911737
308.663850
308.079812
308.371831
305.743662
303.699531
301.947418
298.443192
294.646948
289.098592
283.258216
277.709859
270.117371
261.940845
253.180282
243.251643
233.030986
222.226291
210.837559
197.696714
182.803756
168.786854
152.725822
140.753052
124.984038
106.586854
90.233803
74.756808
59.571831
44.970892
27.741784
14.016901
-1.782235
-16.337154
-32.080229
-44.852913
-58.219675
-71.586437
-84.359121
-98.022923
-109.904489
-121.191977
-134.558739
-147.331423
-160.401146
-171.094556
-183.570201
-197.828080
-212.977077
-222.185291
-232.284623
-242.978032
-251.295129
-261.394460
-267.632283
-274.464183
-282.187202
-289.613181
-295.553964
-300.306590
-303.276982
-305.356256
-305.059217
-307.138491
-306.841452
-307.138491
-307.138491
-305.653295
-302.385864
-301.494747
-298.821394
-295.851003
-293.177650
-286.345750
-281.890162
-275.652340
-267.929322
-258.424069
-249.809933
-241.195798
-232.581662
-218.917861
-208.818529
-195.154728
-180.896848
-165.450812
-150.895893
-136.638013
-122.083095
-102.775549
-87.329513
-71.586437
-56.437440
-42.476600
-24.357211
-8.614136
4.964319
21.901408
35.334272
49.059155
61.615962
74.172770
87.897653
99.578404
111.259155
123.815962
136.080751
150.097653
162.070423
171.415023
185.431925
199.156808
213.465728
223.686385
233.030986
242.667606
252.596244
263.108920
269.241315
275.957746
283.550235
291.142723
296.983099
301.655399
303.991549
305.451643
306.619718
307.787793
308.663850
307.787793
308.955869
305.451643
304.867606
301.655399
300.487324
299.027230
294.646948
289.390610
285.010329
277.417840
269.533333
260.772770
252.596244
243.251643
232.738967
221.058216
209.085446
197.404695
182.803756
167.034742
152.141784
137.832864
123.523944
104.542723
88.773709
73.296714
58.987793
44.386854
28.033803
12.264789
-3.861509
-17.822350
-30.595033
-45.446991
-59.407832
-72.774594
-87.329513
-98.914040
-111.389685
-123.271251
-135.746896
-149.410697
-160.995224
-172.282713
-183.867240
-201.095511
-213.571156
-223.373448
-231.690544
-242.680993
-252.483286
-261.097421
-267.335244
-274.761223
-282.484241
-289.316141
-296.742120
-298.227316
-302.979943
-305.059217
-307.138491
-306.841452
-306.841452
-307.138491
-305.653295
-305.356256
-301.791786
-302.979943
-300.603629
-297.633238
-294.068768
-288.722063
-281.890162
-275.652340
-267.632283
-258.721108
-250.106972
-239.413563
-231.393505
-219.511939
-206.739255
-193.075454
-179.708691
-164.856734
-149.410697
-136.043935
-119.409742
-101.884432
-84.953200
-68.913085
-54.061127
-38.021012
-22.277937
-6.534862
8.176526
21.025352
37.086385
49.643192
63.368075
77.676995
89.357746
102.498592
114.179343
125.860094
139.000939
150.681690
163.822535
173.459155
185.723944
201.492958
214.925822
226.022535
233.615023
242.375587
252.596244
261.940845
270.701408
276.541784
284.718310
290.850704
298.735211
302.823474
304.867606
307.203756
307.495775
308.663850
307.787793
308.371831
307.495775
306.619718
306.619718
303.407512
302.823474
299.611268
295.230986
289.098592
284.718310
277.125822
270.409390
260.772770
252.888263
242.375587
231.862911
221.058216
209.669484
195.652582
181.927700
167.326761
151.265728
139.876995
122.647887
105.126761
88.189671
73.004695
57.819718
43.218779
27.449765
12.264789
-3.267431
-16.634193
-32.377268
-45.446991
-60.595989
-74.259790
-86.438395
-97.428844
-109.607450
-121.786055
-134.261700
-147.925501
-160.995224
-169.609360
-184.164279
-199.313276
-213.571156
-224.264565
-232.878701
-240.601719
-250.701051
-261.097421
-267.632283
-274.761223
-282.484241
-289.316141
-295.256925
-300.603629
-302.979943
-304.465138
-304.762178
-305.950334
-305.059217
-306.841452
-306.544413
-305.653295
-304.465138
-300.900669
-298.524355
-296.148042
-291.989494
-285.751671
-280.999045
-274.464183
-267.038204
-257.235912
-249.512894
-240.304680
-229.611270
-219.214900
-206.145177
-193.372493
-177.926457
-165.153773
-149.113658
-135.449857
-118.518625
-100.399236
-83.468004
-70.101242
-52.872970
-38.318052
-22.574976
-6.831901
7.884507
21.609390
35.918310
49.935211
63.952113
76.216901
89.065728
100.454460
112.427230
124.107981
137.248826
149.805634
162.654460
173.459155
186.892019
202.076995
215.801878
225.438498
233.323005
243.543662
254.932394
262.816901
271.869484
277.417840
283.842254
292.018779
298.735211
303.699531
305.159624
305.743662
306.911737
308.955869
307.203756
308.079812
308.079812
306.911737
305.159624
303.115493
300.195305
297.275117
294.062911
289.098592
282.966197
276.249765
268.949296
260.772770
252.304225
242.667606
231.570892
220.182160
209.377465
195.652582
181.635681
167.618779
151.557746
139.584977
122.939906
104.250704
88.773709
73.296714
57.819718
42.926761
27.449765
11.096714
-3.861509
-17.525310
-31.783190
-46.338109
-59.110793
-73.071633
-85.547278
-98.319962
-109.310411
-122.380134
-135.152818
-148.222541
-160.698185
-171.094556
-183.867240
-200.501433
-214.165234
-223.967526
-231.987584
-240.601719
-250.404011
-261.097421
-267.632283
-274.761223
-281.890162
-289.019102
-294.959885
-299.712512
-301.791786
-305.059217
-305.950334
-305.653295
-307.138491
-306.544413
-305.950334
-304.762178
-302.385864
-302.088825
-299.712512
-295.553964
-290.504298
-286.048711
-278.028653
-273.573066
-267.038204
-256.047755
-248.918816
-239.413563
-229.908309
-215.947469
-204.065903
-191.293219
-176.441261
-162.480420
-147.628462
-134.261700
-116.736390
-98.617001
-82.873926
-67.427889
-51.684814
-38.021012
-20.792741
-5.049666
9.636620
23.945540
39.714554
51.687324
65.996244
77.969014
90.817840
103.666667
114.179343
127.320188
140.169014
151.557746
163.822535
173.459155
188.060094
202.661033
217.553991
226.314554
234.783099
245.587793
254.932394
264.569014
271.285446
277.709859
285.594366
293.478873
298.735211
301.947418
304.867606
305.451643
307.203756
308.663850
307.495775
308.079812
308.079812
306.619718
305.743662
302.823474
299.611268
298.151174
294.062911
288.806573
283.550235
276.541784
268.073239
259.020657
251.428169
241.791549
231.278873
220.474178
207.625352
194.484507
180.175587
165.282629
150.097653
136.080751
120.019718
102.790610
85.269484
70.376526
55.483568
40.590610
25.113615
9.928638
-3.861509
-19.901624
-34.456543
-47.526266
-60.893028
-75.447947
-87.032474
-99.508118
-113.468959
-123.865330
-137.232092
-150.598854
-163.371538
-173.173830
-184.758357
-201.986628
-215.056351
-224.858644
-233.175740
-242.680993
-251.889207
-261.691500
-268.820439
-275.949379
-283.078319
-290.504298
-296.445081
-300.603629
-301.791786
-305.059217
-305.356256
-307.435530
-307.138491
-305.950334
-305.653295
-303.871060
-302.979943
-301.197708
-297.633238
-296.148042
-291.989494
-286.939828
-280.702006
-272.087870
-266.147087
-258.424069
-247.433620
-239.710602
-228.423114
-216.838586
-204.065903
-192.778415
-176.738300
-161.589303
-147.331423
-133.073543
-117.627507
-99.508118
-83.170965
-67.130850
-52.278892
-36.832856
-20.495702
-4.455587
9.344601
23.653521
39.422535
50.811268
65.412207
77.092958
90.233803
103.374648
114.179343
127.028169
139.876995
152.725822
164.698592
173.751174
188.060094
202.661033
216.093897
226.606573
235.367136
245.587793
255.808451
264.276995
270.701408
277.417840
285.010329
292.894836
298.151174
302.531455
305.451643
305.159624
308.079812
309.247887
307.787793
308.663850
307.495775
306.327700
304.867606
302.823474
299.903286
298.151174
294.354930
289.974648
282.966197
275.957746
267.781221
259.020657
249.676056
240.915493
230.694836
218.430047
205.873239
193.608451
179.007512
165.282629
149.221596
134.620657
118.559624
101.038498
85.853521
69.208451
56.067606
40.298592
22.485446
8.760563
-6.237822
-21.386819
-35.347660
-49.011461
-61.784145
-76.042025
-88.517670
-100.696275
