103.472352
25.649485
-65.788462
-39.772115
37.599813
2.623243
5.537957
-8.672115
-23.923077
-37.977885
-53.527885
-66.685577
-80.441346
-92.402885
-105.859615
-118.718269
-132.474038
-147.126923
-159.088462
-170.152885
-184.207692
-201.551923
-213.513462
-223.979808
-233.250000
-244.314423
-253.285577
-262.854808
-267.938462
-276.012500
-283.787500
-292.160577
-297.244231
-301.729808
-302.925962
-304.720192
-303.823077
-309.803846
-305.617308
-307.112500
-308.308654
-301.131731
-299.935577
-298.440385
-297.842308
-293.954808
-287.675000
-281.993269
-278.703846
-273.022115
-260.163462
-254.182692
-240.127885
-232.651923
-218.896154
-204.542308
-195.870192
-179.722115
-167.162500
-146.528846
-132.773077
-120.512500
-98.682692
-84.029808
-65.190385
-50.537500
-35.884615
-21.829808
-5.681731
13.699157
25.358013
39.931584
52.173383
67.038425
79.571696
89.773196
102.889410
115.422680
123.000937
139.906279
148.650422
162.058107
175.174321
184.792877
196.160262
208.693533
226.473290
231.719775
238.132146
252.122774
261.158388
268.736645
275.731959
283.018744
285.059044
293.511715
301.089972
301.964386
307.210872
309.834114
307.502343
306.336457
311.000000
307.793814
306.044986
308.668229
308.085286
300.215558
297.300843
296.426429
296.426429
286.224930
283.893158
278.063730
265.238988
258.243674
245.710403
240.755389
230.845361
218.020619
207.527648
191.788191
180.712277
164.681350
150.982193
135.825679
118.337395
105.512652
88.315839
70.536082
60.043112
42.846298
24.775070
9.618557
-2.990385
-21.829808
-31.399038
-48.145192
-60.405769
-73.862500
-88.216346
-96.888462
-116.325962
-123.203846
-136.959615
-153.406731
-161.480769
-176.432692
-188.693269
-206.635577
-219.793269
-227.269231
-237.137500
-247.603846
-258.070192
-266.144231
-273.022115
-281.395192
-287.675000
-295.150962
-297.543269
-305.916346
-305.916346
-310.401923
-310.102885
-309.205769
-308.906731
-311.000000
-309.205769
-306.813462
-303.524038
-304.421154
-297.543269
-296.646154
-290.366346
-287.076923
-279.301923
-274.218269
-265.247115
-254.481731
-245.809615
-235.044231
-223.082692
-211.420192
-197.066346
-183.011538
-168.059615
-152.808654
-139.052885
-123.203846
-104.663462
-87.618269
-69.675962
-53.826923
-39.772115
-23.325000
-6.877885
8.452671
22.734770
36.433927
50.424555
64.415183
76.656982
89.190253
102.014995
112.799438
124.166823
135.534208
148.358950
159.726336
171.968135
181.586692
196.160262
210.150890
221.518276
229.970947
240.755389
248.625117
258.243674
264.364574
273.691659
280.686973
289.139644
294.677601
298.758201
304.004686
305.170572
308.085286
306.919400
308.959700
308.376757
308.376757
307.210872
305.170572
304.004686
301.089972
300.798500
295.260544
290.014058
285.350515
279.812559
273.108716
265.238988
256.494845
248.333646
237.257732
227.056232
215.980319
202.572634
189.456420
175.757263
160.017807
148.067479
133.202437
117.754452
100.557638
82.777882
67.912840
53.630740
37.891284
22.734770
6.120900
-8.074038
-21.231731
-37.678846
-50.537500
-64.293269
-79.544231
-91.804808
-103.766346
-115.727885
-130.081731
-142.641346
-155.799038
-167.461538
-177.030769
-194.674038
-209.027885
-220.989423
-228.166346
-240.127885
-248.500962
-256.575000
-266.443269
-272.723077
-280.199038
-290.067308
-295.749038
-300.832692
-306.215385
-305.617308
-308.009615
-308.607692
-310.102885
-310.102885
-308.607692
-308.308654
-306.813462
-304.720192
-302.626923
-300.832692
-296.048077
-290.964423
-286.777885
-279.900000
-274.517308
-263.452885
-255.378846
-244.912500
-235.941346
-223.381731
-210.523077
-197.365385
-182.114423
-168.956731
-152.509615
-139.052885
-124.100962
-104.663462
-87.618269
-71.171154
-55.322115
-40.071154
-23.325000
-8.074038
7.286785
22.443299
36.142455
50.133083
62.374883
75.491097
89.190253
100.557638
112.216495
124.166823
135.534208
148.067479
161.475164
171.093721
181.586692
197.034677
211.316776
222.101218
230.262418
239.298032
249.208060
258.243674
266.113402
273.400187
281.269916
287.682287
296.134958
299.924086
304.296157
305.170572
306.627929
307.793814
307.210872
307.502343
308.668229
306.627929
304.879100
302.838800
302.838800
298.758201
294.386129
291.179944
285.933458
279.229616
273.108716
262.907216
257.077788
246.001874
236.966261
225.307404
214.522962
201.698219
188.873477
174.299906
160.600750
146.610122
131.453608
115.422680
98.517338
84.235239
66.455483
53.339269
37.891284
21.277413
6.412371
-7.775000
-23.923077
-37.678846
-52.331731
-64.891346
-77.750000
-90.608654
-103.467308
-116.026923
-128.586538
-143.239423
-155.799038
-166.265385
-178.226923
-194.375000
-209.027885
-221.587500
-227.867308
-240.127885
-249.697115
-258.668269
-266.443269
-274.218269
-280.498077
-289.768269
-296.347115
-302.626923
-305.318269
-309.205769
-308.607692
-309.504808
-309.504808
-308.906731
-308.906731
-308.607692
-306.813462
-305.019231
-303.524038
-299.636538
-295.749038
-290.067308
-285.880769
-279.002885
-273.321154
-264.050962
-254.182692
-245.809615
-233.549038
-223.381731
-211.121154
-197.365385
-185.403846
-168.059615
-154.004808
-139.052885
-123.203846
-105.859615
-87.020192
-72.666346
-56.219231
-40.071154
-24.820192
-9.270192
6.412371
21.568885
35.559513
48.675726
61.791940
74.033739
87.441425
99.100281
110.467666
122.709466
134.659794
146.901593
160.017807
169.053421
182.461106
196.743205
210.733833
221.226804
228.513590
239.006560
249.208060
259.118088
266.113402
273.691659
281.561387
289.139644
295.552015
301.381443
303.713215
305.753515
306.627929
306.627929
306.627929
307.210872
306.627929
305.462043
304.587629
302.255858
301.089972
298.758201
294.386129
290.305530
283.601687
278.355201
274.274602
263.490159
254.746017
245.127460
235.217432
224.724461
212.774133
201.406748
186.833177
171.968135
159.434864
146.027179
131.453608
113.965323
97.351453
81.029053
66.455483
50.716026
34.976570
20.694470
3.789128
-10.167308
-24.222115
-38.575962
-53.527885
-66.386538
-80.441346
-93.000962
-104.962500
-117.223077
-129.782692
-143.239423
-155.500000
-165.966346
-180.021154
-195.870192
-210.822115
-221.288462
-230.259615
-238.632692
-250.594231
-258.369231
-266.742308
-275.713462
-281.694231
-290.067308
-296.048077
-299.636538
-304.421154
-307.112500
-307.710577
-307.710577
-307.411538
-308.607692
-308.607692
-308.009615
-307.710577
-304.421154
-302.028846
-299.038462
-295.749038
-290.067308
-284.086538
-279.600962
-271.825962
-262.256731
-253.285577
-245.211538
-234.147115
-223.082692
-209.326923
-195.571154
-182.413462
-166.564423
-152.210577
-138.753846
-122.605769
-104.962500
-87.319231
-71.769231
-55.023077
-39.473077
-24.222115
-7.475962
7.286785
20.694470
36.725398
49.841612
62.666354
75.782568
88.898782
100.266167
112.799438
123.875351
136.991565
149.233365
161.766635
170.510778
183.044049
197.617619
212.191190
222.684161
232.594189
240.755389
251.248360
261.158388
267.279288
276.023430
282.727273
290.014058
296.426429
301.381443
303.421743
305.753515
307.502343
307.502343
307.502343
308.085286
308.668229
308.376757
306.336457
303.713215
301.089972
297.883786
294.969072
290.014058
284.767573
277.772259
271.068416
264.073102
253.871603
246.001874
235.217432
223.558575
212.482662
198.783505
185.375820
170.219306
156.811621
142.820993
128.830366
110.467666
94.436739
77.531396
63.249297
48.967198
32.936270
17.488285
1.457357
-13.157692
-26.315385
-42.463462
-56.219231
-69.077885
-83.431731
-95.692308
-108.550962
-121.110577
-133.072115
-147.126923
-158.789423
-169.554808
-182.114423
-197.963462
-212.018269
-222.484615
-232.651923
-243.417308
-253.883654
-261.957692
-267.639423
-276.311538
-282.292308
-290.665385
-296.945192
-302.327885
-305.019231
-307.710577
-310.102885
-309.205769
-308.607692
-309.803846
-308.607692
-309.504808
-306.215385
-304.122115
-302.626923
-299.038462
-294.552885
-290.067308
-284.385577
-278.703846
-270.928846
-261.658654
-253.285577
-242.520192
-231.754808
-223.381731
-208.130769
-195.571154
-181.815385
-166.564423
-151.014423
-137.557692
-120.811538
-102.869231
-85.824038
-70.274038
-53.527885
-40.370192
-21.829808
-7.475962
8.744142
22.443299
36.433927
51.590440
64.415183
76.656982
90.939082
101.723524
113.382381
125.041237
137.574508
149.816307
161.183693
170.219306
183.626992
199.366448
213.940019
223.558575
231.428304
241.629803
251.831303
261.158388
268.736645
274.274602
283.310216
289.139644
295.552015
300.798500
302.838800
305.462043
307.502343
306.919400
308.085286
307.502343
307.793814
306.919400
305.170572
302.547329
301.089972
298.175258
294.969072
290.014058
285.641987
278.938144
271.068416
261.158388
252.997188
243.670103
233.468604
224.432990
212.482662
199.366448
184.209934
170.510778
156.520150
143.695408
127.955951
109.010309
93.270853
76.948454
63.540769
48.384255
31.478913
16.613871
-0.598077
-14.054808
-28.109615
-42.463462
-55.621154
-69.077885
-83.431731
-95.692308
-108.251923
-119.914423
-132.773077
-145.631731
-158.789423
-169.554808
-183.011538
-198.561538
-212.616346
-223.381731
-232.352885
-243.417308
-251.491346
-261.060577
-268.835577
-275.414423
-283.189423
-290.964423
-298.440385
-301.729808
-304.720192
-306.215385
-308.607692
-309.205769
-307.710577
-308.009615
-309.205769
-308.009615
-305.916346
-303.823077
-301.131731
-299.636538
-293.655769
-287.375962
-282.890385
-277.208654
-270.031731
-260.761538
-252.388462
-241.922115
-231.754808
-220.989423
-208.130769
-194.075962
-180.021154
-166.863462
-151.014423
-137.856731
-122.007692
-104.065385
-85.225962
-70.872115
-54.125962
-40.669231
-22.726923
-6.877885
8.161200
22.151828
37.016870
49.841612
64.123711
76.074039
90.356139
101.432052
113.090909
124.749766
136.700094
148.941893
162.058107
171.093721
183.626992
200.240862
213.940019
223.558575
232.302718
242.795689
253.580131
261.741331
268.736645
276.606373
282.727273
291.179944
297.592315
301.381443
305.170572
306.627929
307.502343
308.959700
307.502343
307.793814
306.336457
307.502343
304.004686
303.713215
300.215558
297.883786
294.969072
288.265230
282.727273
276.897844
269.902530
261.158388
251.248360
243.087160
232.885661
222.392690
210.150890
196.160262
183.335520
167.887535
153.605436
141.655108
124.749766
108.427366
91.813496
75.782568
60.917526
45.469541
29.730084
15.739456
-0.897115
-15.550000
-29.604808
-43.360577
-56.817308
-71.769231
-84.328846
-95.991346
-108.251923
-121.110577
-134.268269
-147.126923
-160.284615
-170.451923
-183.609615
-199.757692
-213.513462
-223.680769
-232.950962
-244.015385
-253.584615
-261.658654
-269.134615
-277.806731
-282.591346
-292.459615
-296.945192
-303.524038
-306.215385
-307.411538
-308.308654
-306.813462
-308.906731
-308.607692
-308.607692
-307.710577
-305.318269
-303.823077
-302.028846
-297.543269
-292.758654
-289.170192
-283.787500
-277.208654
-269.732692
-258.967308
-251.491346
-241.922115
-230.857692
-220.391346
-207.532692
-194.375000
-179.722115
-163.873077
-149.818269
-136.361538
-119.017308
-101.374038
-84.926923
-68.479808
-54.125962
-37.678846
-20.334615
-5.681731
10.201500
23.609185
36.433927
51.590440
64.706654
77.822868
90.356139
102.014995
113.673852
125.332709
137.574508
151.273664
163.515464
173.716963
185.958763
201.115276
214.522962
225.015933
232.302718
243.670103
253.288660
261.741331
270.194002
277.772259
284.184630
291.471415
297.300843
302.255858
305.170572
305.753515
306.919400
307.502343
307.793814
307.210872
308.959700
306.627929
304.296157
302.838800
301.381443
297.883786
294.677601
289.722587
283.601687
277.480787
269.611059
261.158388
250.956888
242.212746
232.302718
220.352390
208.985005
196.451734
181.295220
166.721649
153.896907
139.031865
122.417994
105.512652
89.190253
73.450797
58.294283
43.720712
28.272727
11.075914
-2.990385
-17.942308
-31.698077
-45.752885
-59.209615
-73.862500
-87.020192
-99.579808
-111.242308
-124.699038
-137.557692
-150.416346
-162.377885
-172.844231
-187.497115
-201.850962
-215.905769
-225.774038
-233.848077
-242.520192
-252.986538
-264.350000
-270.928846
-278.105769
-285.282692
-293.057692
-299.038462
-304.122115
-305.916346
-306.813462
-309.504808
-308.607692
-309.504808
-308.607692
-309.205769
-307.710577
-305.019231
-304.122115
-298.739423
-298.141346
-293.356731
-289.469231
-284.385577
-277.507692
-269.433654
-260.163462
-249.697115
-240.725962
-229.661538
-219.793269
-206.635577
-192.879808
-177.628846
-163.574038
-148.323077
-134.866346
-118.120192
-100.177885
-82.534615
-67.283654
-51.733654
-36.781731
-20.633654
-2.691346
11.658857
24.775070
38.474227
52.173383
67.038425
78.114339
91.522024
104.346767
114.839738
128.247423
140.489222
153.022493
165.264292
174.299906
187.999063
202.864105
215.688847
225.307404
233.468604
243.961575
253.580131
262.907216
271.068416
276.606373
284.476101
292.637301
298.466729
302.838800
305.462043
307.793814
309.542643
308.959700
308.085286
307.793814
307.210872
307.793814
305.462043
301.964386
299.924086
297.300843
292.637301
288.848172
283.310216
276.606373
268.445173
259.409560
249.499531
241.338332
230.553889
220.935333
207.819119
194.702905
180.129335
165.264292
152.148079
138.157451
122.126523
105.221181
88.315839
71.993440
58.294283
42.263355
25.649485
10.784442
-4.485577
-18.839423
-31.997115
-46.350962
-60.704808
-74.460577
-87.618269
-98.682692
-111.840385
-124.400000
-137.258654
-150.117308
-160.882692
-172.545192
-185.702885
-202.449038
-216.503846
-224.876923
-234.446154
-245.809615
-255.677885
-261.957692
-270.928846
-277.507692
-285.880769
-293.057692
-299.038462
-303.225000
-305.916346
-307.411538
-308.607692
-309.205769
-308.906731
-307.710577
-308.308654
-307.112500
-305.318269
-304.720192
-301.131731
-296.347115
-292.758654
-288.273077
-281.694231
-274.218269
-267.340385
-257.771154
-250.594231
-239.828846
-229.661538
-217.999038
-204.841346
-190.188462
-176.432692
-162.975962
-148.323077
-134.866346
-116.924038
-98.981731
-82.235577
-66.685577
-49.640385
-35.286538
-19.138462
-3.588462
11.367385
25.940956
42.263355
54.213683
67.621368
80.154639
92.104967
105.512652
115.131209
127.373008
139.614808
152.731022
164.389878
174.882849
188.873477
203.155576
216.271790
226.181818
235.800375
245.418932
255.911903
264.656045
270.194002
279.521087
284.767573
292.928772
298.466729
302.838800
305.170572
306.336457
307.210872
308.376757
308.085286
308.959700
307.210872
306.336457
305.753515
302.547329
301.381443
296.717901
293.220244
287.390815
281.269916
274.566073
266.987816
258.826617
250.373946
241.338332
229.970947
218.895033
206.070291
192.371134
178.671978
162.932521
148.358950
137.574508
120.377694
102.889410
85.984067
70.244611
55.379569
41.097470
23.609185
8.452671
-5.980769
-21.530769
-34.389423
-50.238462
-63.097115
-76.553846
-90.608654
-102.869231
-114.531731
-125.895192
-139.650962
-153.107692
-165.069231
-175.236538
-189.291346
-204.243269
-217.700000
-226.671154
-236.240385
-245.510577
-255.976923
-265.247115
-269.732692
-279.600962
-285.581731
-293.954808
-301.430769
-304.421154
-305.019231
-306.813462
-306.813462
-308.906731
-309.504808
-308.906731
-309.205769
-305.916346
-304.421154
-304.421154
-300.832692
-298.739423
-294.253846
-287.675000
-280.199038
-275.713462
-266.742308
-257.173077
-249.996154
-239.230769
-229.661538
-216.802885
-203.047115
-190.786538
-175.535577
-159.686538
-146.827885
-132.474038
-114.531731
-97.486538
-80.441346
-66.386538
-49.042308
-33.791346
-17.045192
-0.897115
12.824742
27.106842
41.388941
55.088097
67.912840
81.320525
94.145267
106.387067
118.337395
129.413308
142.820993
155.937207
165.847235
176.923149
190.622306
207.236176
218.603561
227.930647
236.383318
245.710403
256.494845
264.364574
272.525773
278.938144
285.641987
294.677601
299.924086
304.296157
306.044986
308.376757
307.793814
308.668229
308.959700
308.376757
309.542643
306.919400
305.170572
303.130272
301.381443
298.175258
293.511715
288.556701
281.561387
276.314902
267.570759
257.660731
249.208060
240.463918
228.513590
217.729147
205.195876
192.079663
177.214620
162.932521
150.107779
136.408622
118.920337
101.432052
84.818182
70.244611
55.671040
39.057170
23.609185
7.578257
-5.980769
-20.334615
-35.286538
-49.640385
-62.200000
-75.955769
-88.814423
-102.271154
-114.232692
-125.895192
-139.950000
-152.509615
-164.770192
-174.937500
-190.786538
-205.439423
-217.999038
-228.166346
-236.539423
-246.407692
-254.481731
-264.649038
-271.825962
-278.105769
-285.880769
-294.253846
-299.337500
-302.925962
-305.617308
-306.813462
-307.112500
-307.710577
-309.803846
-308.308654
-308.607692
-305.916346
-304.720192
-302.327885
-299.337500
-295.749038
-293.057692
-286.478846
-281.694231
-274.517308
-266.742308
-258.668269
-248.500962
-239.230769
-228.166346
-215.307692
-203.047115
-189.590385
-174.937500
-159.686538
-145.631731
-131.875962
-114.232692
-95.692308
-78.049038
-65.190385
-48.743269
-32.595192
-16.746154
0.582943
14.573571
27.398313
40.805998
55.379569
69.370197
81.320525
93.270853
106.678538
116.588566
129.413308
142.529522
155.062793
165.555764
176.048735
191.496720
207.819119
217.437676
227.056232
235.508903
245.710403
255.911903
264.947516
271.068416
279.521087
286.224930
294.677601
300.215558
304.296157
306.627929
306.044986
308.959700
307.502343
308.085286
308.376757
307.210872
307.502343
304.587629
303.130272
300.798500
297.592315
293.220244
287.973758
282.727273
276.606373
267.570759
258.826617
248.916589
241.338332
228.513590
218.312090
204.612933
191.496720
177.214620
162.058107
148.941893
134.659794
118.045923
99.974695
84.526710
69.078725
55.088097
39.057170
23.609185
6.995314
-8.074038
-20.932692
-36.183654
-49.939423
-63.695192
-76.553846
-89.412500
-101.673077
-114.531731
-126.493269
-140.847115
-153.406731
-163.275000
-174.638462
-191.683654
-205.738462
-217.700000
-226.073077
-235.941346
-247.902885
-256.575000
-265.247115
-273.022115
-278.703846
-286.179808
-293.954808
-300.234615
-303.823077
-305.916346
-306.813462
-307.112500
-308.009615
-308.906731
-307.112500
-308.308654
-305.916346
-305.019231
-302.626923
-299.337500
-297.244231
-292.160577
-286.478846
-279.900000
-273.321154
-266.144231
-255.378846
-247.603846
-237.735577
-225.774038
-213.812500
-200.654808
-187.198077
-172.545192
-158.789423
-145.930769
-129.184615
-111.840385
-94.496154
-77.151923
-61.900962
-47.846154
-30.202885
-15.550000
0.874414
15.739456
28.272727
42.554827
56.836926
69.953140
83.943768
94.728210
107.844424
119.211809
132.328022
144.569822
157.394564
168.179007
178.671978
194.119963
208.402062
220.060918
228.222118
237.840675
248.333646
257.369260
265.821931
274.566073
280.104030
287.973758
294.969072
301.964386
304.879100
305.462043
307.793814
307.210872
308.376757
308.085286
308.668229
307.502343
306.919400
304.004686
301.381443
299.632615
297.009372
292.345829
287.390815
281.269916
275.149016
265.530459
256.494845
248.916589
238.132146
226.764761
216.271790
203.738519
189.456420
174.591378
160.600750
146.610122
132.328022
115.422680
98.225867
81.903468
66.455483
51.298969
36.433927
19.528585
4.663543
-10.167308
-24.222115
-38.276923
-52.032692
-66.386538
-80.142308
-92.701923
-104.962500
-116.625000
-130.978846
-142.342308
-156.098077
-165.966346
-177.030769
-193.178846
-207.831731
-218.597115
-228.166346
-236.539423
-247.005769
-258.070192
-266.144231
-273.620192
-279.600962
-289.469231
-296.347115
-298.739423
-304.421154
-308.009615
-307.411538
-309.504808
-308.906731
-308.607692
-307.411538
-307.710577
-307.112500
-303.823077
-302.028846
-297.842308
-295.749038
-291.263462
-285.880769
-279.900000
-272.723077
-264.350000
-255.378846
-245.809615
-234.745192
-223.680769
-213.812500
-200.355769
-186.300962
-171.349038
-155.500000
-142.940385
-127.689423
-109.747115
-92.402885
-76.254808
-60.106731
-45.154808
-29.006731
-12.260577
2.914714
16.322399
31.478913
43.720712
57.711340
71.993440
83.943768
97.351453
108.135895
120.669166
134.368322
145.444236
158.268978
168.470478
179.546392
195.285848
209.276476
220.352390
229.679475
238.715089
250.082474
258.826617
266.404873
273.983130
281.269916
289.431115
294.969072
299.341143
304.296157
304.587629
307.793814
308.668229
308.959700
308.376757
307.210872
308.668229
306.336457
305.462043
302.255858
299.632615
294.969072
291.179944
286.224930
280.686973
273.691659
264.947516
256.786317
246.584817
237.257732
226.473290
215.105904
202.572634
187.416120
174.882849
158.851921
146.027179
131.453608
113.673852
98.225867
81.320525
66.455483
51.881912
35.268041
17.779756
4.080600
-10.466346
-24.820192
-39.174038
-52.929808
-65.788462
-80.142308
-92.701923
-104.663462
-116.625000
-127.988462
-141.744231
-154.602885
-165.966346
-178.226923
-194.375000
-209.326923
-220.690385
-228.465385
-239.230769
-248.800000
-258.668269
-266.144231
-273.022115
-280.498077
-287.375962
-295.150962
-300.832692
-303.225000
-306.813462
-307.112500
-308.906731
-308.308654
-310.401923
-307.411538
-307.112500
-307.411538
-303.823077
-303.823077
-298.440385
-295.150962
-290.067308
-284.086538
-278.404808
-270.629808
-262.555769
-252.986538
-244.912500
-232.950962
-223.979808
-211.719231
-197.664423
-186.001923
-170.451923
-156.397115
-141.146154
-127.689423
-108.850000
-92.103846
-75.357692
-59.508654
-44.257692
-28.707692
-11.662500
2.623243
17.488285
30.604499
45.469541
58.877226
71.410497
84.235239
96.477038
109.884724
120.086223
131.745080
145.735708
157.394564
167.887535
179.837863
194.702905
210.150890
220.935333
229.096532
239.006560
248.625117
258.826617
268.153702
273.983130
282.144330
288.265230
295.552015
301.089972
304.004686
305.753515
307.210872
306.627929
309.834114
307.502343
307.793814
307.502343
304.879100
305.462043
303.130272
300.798500
295.552015
290.888472
285.933458
280.686973
273.108716
264.073102
256.786317
247.750703
237.257732
225.890347
214.231490
201.406748
187.416120
172.842549
157.686036
146.027179
130.870665
112.799438
96.477038
79.863168
65.581068
50.716026
34.393627
18.362699
2.040300
-12.260577
-25.717308
-39.772115
-54.425000
-67.881731
-80.441346
-93.300000
-105.261538
-117.821154
-131.277885
-144.136538
-157.294231
-167.461538
-179.423077
-194.973077
-209.925000
-220.989423
-230.259615
-238.034615
-248.800000
-258.070192
-266.742308
-273.620192
-280.199038
-287.675000
-294.851923
-301.729808
-303.524038
-305.916346
-308.009615
-308.906731
-307.411538
-309.205769
-309.803846
-305.916346
-305.617308
-302.327885
-301.430769
-298.141346
-295.450000
-290.964423
-285.282692
-277.507692
-272.424038
-263.751923
-254.780769
-246.108654
-234.147115
-223.381731
-211.719231
-198.561538
-185.104808
-169.255769
-154.303846
-141.445192
-124.100962
-107.952885
-90.309615
-73.862500
-58.312500
-43.958654
-26.315385
-11.363462
3.789128
18.654171
33.227741
45.469541
60.626054
74.033739
86.858482
99.100281
111.050609
122.126523
134.951265
147.776007
160.017807
169.636364
181.295220
197.034677
211.025305
222.975633
230.845361
241.338332
251.248360
260.866917
267.570759
275.440487
282.727273
290.305530
297.009372
300.798500
304.004686
306.919400
307.502343
308.376757
308.376757
307.793814
306.627929
306.627929
306.919400
302.255858
301.672915
298.758201
295.843486
292.345829
285.641987
279.812559
272.817245
263.490159
254.746017
246.001874
234.925961
223.850047
212.774133
200.532334
185.084349
171.093721
155.645736
143.403936
128.247423
110.759138
94.436739
77.531396
62.666354
47.218369
32.061856
16.030928
0.874414
-13.456731
-27.810577
-41.865385
-56.518269
-68.479808
-83.132692
-95.692308
-108.251923
-121.708654
-132.474038
-146.827885
-159.686538
-168.956731
-182.114423
-196.169231
-211.420192
-222.185577
-231.455769
-240.127885
-250.594231
-259.864423
-268.237500
-274.517308
-283.488462
-289.170192
-296.646154
-301.430769
-303.823077
-307.112500
-307.411538
-309.205769
-308.906731
-307.411538
-307.411538
-307.411538
-305.318269
-305.019231
-302.028846
-297.543269
-294.851923
-289.768269
-283.787500
-276.909615
-270.330769
-261.957692
-253.584615
-242.819231
-233.250000
-223.082692
-209.625962
-197.365385
-181.815385
-168.059615
-153.406731
-139.052885
-124.100962
-103.766346
-89.711538
-72.068269
-57.116346
-40.968269
-24.222115
-9.270192
6.120900
19.820056
34.976570
48.675726
61.791940
76.074039
88.024367
99.683224
112.216495
124.166823
136.700094
148.941893
161.183693
172.259606
183.626992
198.492034
212.482662
224.432990
231.719775
241.629803
251.248360
261.158388
269.028116
276.897844
283.601687
288.848172
296.717901
301.381443
305.462043
306.044986
307.793814
307.502343
309.542643
309.251172
308.376757
307.793814
306.336457
305.170572
302.547329
300.507029
294.969072
290.597001
285.350515
279.521087
272.525773
263.198688
254.454545
245.418932
234.634489
224.432990
210.733833
198.783505
184.501406
170.219306
154.771321
141.946579
127.373008
109.884724
92.104967
76.074039
61.500469
47.218369
30.604499
15.739456
0.291471
-15.550000
-28.408654
-43.061538
-58.312500
-71.171154
-83.730769
-95.991346
-108.251923
-119.914423
-133.969231
-147.126923
-159.088462
-168.657692
-182.413462
-197.066346
-212.018269
-222.484615
-232.053846
-241.623077
-251.790385
-259.864423
-268.536538
-275.115385
-282.591346
-290.366346
-297.244231
-301.729808
-305.617308
-307.710577
-307.710577
-308.009615
-308.308654
-309.205769
-308.906731
-306.215385
-305.019231
-303.225000
-300.533654
-299.038462
-294.552885
-289.170192
-283.488462
-276.610577
-269.134615
-261.060577
-252.388462
-242.819231
-232.352885
-221.587500
-209.326923
-195.870192
-181.815385
-166.564423
-152.509615
-139.351923
-122.007692
-105.261538
-87.319231
-71.171154
-55.920192
-41.267308
-24.521154
-8.971154
7.578257
20.694470
35.850984
48.384255
61.208997
74.908154
87.732896
98.808810
110.467666
123.583880
135.534208
148.067479
160.600750
170.510778
183.918463
198.200562
213.648547
224.141518
232.302718
243.087160
252.414246
262.615745
269.028116
276.314902
284.184630
292.054358
297.883786
302.838800
305.170572
306.919400
308.959700
307.502343
307.502343
309.834114
307.210872
308.085286
306.044986
303.713215
301.964386
299.632615
294.677601
289.722587
285.059044
279.229616
271.359888
262.032802
253.288660
244.544517
233.468604
222.101218
211.316776
199.657919
184.209934
168.179007
155.645736
141.655108
125.624180
109.010309
91.522024
76.948454
59.751640
46.343955
30.604499
14.573571
-1.196154
-14.951923
-30.501923
-44.257692
-56.518269
-71.171154
-84.029808
-96.888462
-108.550962
-120.512500
-134.268269
-145.930769
-159.686538
-169.853846
-182.712500
-199.458654
-211.719231
-224.278846
-231.754808
-242.520192
-251.491346
-260.761538
-267.340385
-274.816346
-281.993269
-290.067308
-297.244231
-302.327885
-302.327885
-305.916346
-307.710577
-308.308654
-308.308654
-306.813462
-308.009615
-306.813462
-304.720192
-303.225000
-299.636538
-298.440385
-294.552885
-288.871154
-283.787500
-277.507692
-268.835577
-260.163462
-250.594231
-243.118269
-231.754808
-220.092308
-208.130769
-193.477885
-178.825000
-165.667308
-150.715385
-136.959615
-121.110577
-102.570192
-86.123077
-69.376923
-54.125962
-39.772115
-22.726923
-7.176923
8.744142
21.568885
36.725398
49.841612
64.123711
76.656982
89.481724
101.723524
113.090909
125.041237
139.031865
150.107779
162.932521
171.676664
186.250234
201.406748
214.522962
224.724461
233.468604
242.504217
253.288660
261.741331
271.068416
277.480787
284.767573
292.928772
297.883786
302.838800
304.879100
305.462043
308.668229
308.376757
308.376757
308.959700
307.210872
309.251172
306.336457
303.421743
301.381443
297.883786
294.969072
290.014058
283.310216
277.480787
270.194002
260.283974
252.705717
243.670103
231.428304
221.226804
209.859419
195.285848
181.586692
167.887535
152.731022
140.489222
124.458294
106.095595
90.064667
71.993440
59.460169
43.720712
28.272727
12.824742
-4.186538
-17.344231
-31.100000
-44.257692
-59.807692
-72.965385
-86.123077
-98.682692
-110.943269
-123.203846
-136.660577
-149.818269
-163.275000
-171.648077
-186.001923
-201.252885
-214.410577
-224.577885
-233.250000
-243.716346
-253.584615
-262.555769
-269.433654
-275.414423
-282.890385
-290.964423
-298.141346
-302.925962
-304.421154
-305.318269
-307.112500
-308.009615
-308.906731
-307.710577
-307.411538
-307.411538
-304.421154
-302.925962
-301.131731
-298.141346
-293.356731
-287.076923
-281.993269
-276.012500
-267.340385
-258.369231
-250.893269
-241.623077
-231.156731
-220.391346
-208.429808
-192.580769
-180.918269
-163.275000
-150.416346
-136.959615
-119.316346
-102.271154
-84.328846
-69.077885
-53.826923
-37.678846
-21.829808
-5.083654
8.452671
23.317713
37.891284
51.298969
64.415183
76.656982
90.064667
102.306467
113.965323
125.624180
138.157451
150.690722
162.349578
172.551078
186.250234
202.281162
215.688847
225.015933
234.051546
245.127460
254.746017
264.073102
270.194002
277.480787
284.476101
293.511715
299.341143
303.130272
305.462043
308.668229
306.919400
307.793814
308.085286
308.959700
309.834114
306.336457
304.879100
303.130272
301.381443
298.466729
294.094658
290.305530
284.184630
277.772259
269.611059
261.449859
252.705717
242.795689
231.428304
220.643861
207.236176
195.285848
179.546392
165.264292
150.690722
139.031865
122.126523
103.763824
87.149953
72.284911
57.128397
42.846298
26.232427
11.658857
-5.382692
-18.839423
-32.894231
-48.145192
-61.601923
-74.161538
-87.319231
-100.476923
-112.438462
-125.596154
-137.258654
-151.313462
-162.975962
-172.246154
-186.600000
-201.551923
-215.606731
-225.774038
-233.549038
-244.912500
-254.481731
-262.854808
-270.330769
-276.311538
-285.880769
-292.160577
-297.842308
-303.225000
-305.617308
-306.813462
-308.906731
-308.607692
-307.710577
-308.308654
-307.112500
-307.411538
-305.916346
-301.729808
-300.234615
-296.945192
-292.160577
-286.179808
-281.694231
-273.321154
-267.041346
-258.369231
-250.295192
-240.127885
-229.960577
-219.793269
-205.140385
-191.085577
-179.124038
-163.275000
-148.921154
-134.268269
-118.718269
-100.476923
-84.627885
-69.077885
-52.331731
-36.781731
-21.231731
-5.681731
9.327085
24.483599
39.057170
52.173383
65.289597
79.571696
91.230553
102.306467
113.382381
126.498594
138.740394
151.565136
164.098407
173.134021
187.416120
202.281162
216.271790
226.473290
234.343018
246.001874
255.037488
263.198688
270.194002
278.646673
285.059044
292.054358
300.215558
304.587629
305.170572
305.753515
308.376757
307.502343
308.959700
308.959700
308.959700
306.627929
304.004686
304.004686
301.089972
298.466729
294.386129
287.973758
282.435801
276.314902
267.862231
259.118088
252.414246
242.504217
231.428304
220.352390
207.527648
194.411434
181.003749
165.264292
151.565136
138.157451
121.835052
103.472352
86.858482
71.993440
58.585754
42.263355
25.940956
9.327085
-4.186538
-17.344231
-33.193269
-47.248077
-60.704808
-74.460577
-88.216346
-98.682692
-112.139423
-124.699038
-137.856731
-150.715385
-161.480769
-172.844231
-187.796154
-202.449038
-216.204808
-224.876923
-232.950962
-244.613462
-253.285577
-262.555769
-271.526923
-275.713462
-285.880769
-293.057692
-297.543269
-302.028846
-304.421154
-307.112500
-308.308654
-309.803846
-308.308654
-306.813462
-308.308654
-307.112500
-304.421154
-303.225000
-299.935577
-296.945192
-293.057692
-287.675000
-282.292308
-275.115385
-265.845192
-257.771154
-248.500962
-238.632692
-228.465385
-216.802885
-204.841346
-189.590385
-174.339423
-161.480769
-146.229808
-133.072115
-115.727885
-95.991346
-81.338462
-65.190385
-49.341346
-34.987500
-17.643269
-2.990385
11.950328
26.232427
39.640112
54.505155
67.621368
81.320525
93.270853
104.929709
116.588566
128.247423
143.112465
155.645736
165.555764
176.340206
190.622306
205.778819
218.895033
227.347704
236.383318
246.584817
257.077788
265.530459
273.108716
279.812559
286.807873
294.386129
300.215558
303.421743
306.044986
308.085286
307.502343
310.125586
309.251172
308.668229
307.502343
306.336457
305.753515
303.130272
301.964386
297.883786
292.928772
289.431115
283.310216
276.314902
268.445173
258.243674
250.665417
241.629803
230.553889
219.186504
205.778819
192.662605
178.671978
162.932521
149.816307
136.991565
119.794752
102.014995
85.109653
70.827554
54.796626
41.097470
23.900656
9.035614
-5.681731
-19.437500
-34.688462
-49.341346
-61.900962
-75.357692
-88.515385
-100.177885
-113.933654
-126.194231
-139.650962
-152.210577
-162.975962
-173.442308
-187.497115
-204.243269
-216.802885
-225.475000
-234.147115
-245.211538
-254.182692
-264.649038
-271.825962
-278.105769
-286.478846
-292.160577
-299.337500
-303.225000
-304.421154
-307.112500
-307.112500
-308.009615
-307.411538
-308.906731
-307.710577
-305.318269
-304.720192
-300.832692
-300.832692
-296.347115
-293.057692
-287.076923
-281.395192
-276.909615
-266.742308
-258.070192
-248.500962
-238.632692
-228.166346
-215.008654
-203.047115
-190.786538
-175.236538
-160.583654
-146.229808
-132.175000
-115.727885
-96.589423
-80.142308
-64.891346
-50.836538
-32.894231
-17.643269
-1.196154
13.699157
26.523899
41.097470
53.339269
67.329897
81.611996
92.687910
104.638238
117.171509
129.413308
141.072165
153.605436
165.264292
176.631678
190.330834
206.361762
217.729147
228.222118
237.257732
247.459231
257.077788
264.947516
272.817245
278.938144
286.807873
294.094658
299.049672
303.421743
305.170572
307.502343
308.085286
309.834114
308.376757
307.502343
308.376757
307.793814
306.627929
304.004686
300.507029
297.009372
293.220244
288.848172
283.310216
276.897844
267.570759
257.660731
248.625117
239.880975
228.805061
218.312090
205.487348
190.622306
176.048735
163.223993
148.358950
134.659794
117.754452
100.266167
83.360825
68.787254
