-146.631179
-117.659696
-36.953422
14.837231
-83.071293
-67.403042
-48.778517
-35.179658
-18.033270
-3.843156
12.218896
26.474275
39.565949
53.821328
66.331151
78.840973
92.223573
104.151543
116.661366
129.171188
142.844715
156.809167
166.991581
181.537886
198.411600
211.212348
222.558466
231.286249
241.468662
251.651076
259.506080
264.742750
276.088868
282.780168
290.053321
296.162769
301.399439
302.563143
302.854069
304.017774
304.890552
304.890552
302.854069
299.362956
299.362956
298.199252
295.289991
292.962582
289.471469
282.489242
280.452760
274.052385
268.815716
255.433115
245.250702
237.395697
223.431244
211.503274
198.411600
188.811038
170.191768
156.518241
137.026193
125.971001
113.170253
90.187091
74.477081
54.403181
41.311506
25.601497
4.363891
-11.233840
-23.354563
-33.997148
-48.778517
-64.742395
-73.906844
-88.392586
-96.965779
-110.860266
-117.955323
-132.736692
-142.196768
-158.160646
-165.255703
-174.420152
-189.792776
-202.504753
-211.669202
-231.476236
-238.275665
-240.936312
-250.987643
-258.969582
-265.473384
-269.907795
-281.437262
-285.576046
-291.784221
-301.835551
-305.383080
-310.113118
-307.156844
-309.817490
-309.521863
-307.452471
-311.000000
-311.000000
-308.043726
-308.634981
-304.200570
-303.904943
-294.740494
-295.036122
-287.941065
-282.619772
-276.115970
-267.247148
-259.856464
-251.283270
-240.640684
-231.180608
-218.764259
-205.165399
-193.931559
-178.558935
-164.368821
-151.361217
-138.057985
-120.024715
-103.469582
-84.549430
-70.654943
-56.169202
-40.205323
-24.537072
-9.460076
6.109448
20.073901
33.747428
48.875585
61.385407
75.931712
88.150608
101.824135
112.588400
125.098223
138.480823
151.281572
161.754911
172.228251
186.192703
200.448082
216.449018
226.049579
235.359214
247.287184
257.178672
263.288120
270.270346
277.543499
285.980355
290.635173
299.944808
301.981291
306.345182
306.927035
304.599626
306.927035
309.545370
307.508887
307.508887
306.927035
304.308700
301.399439
297.035547
294.708138
290.344247
284.816651
278.125351
271.143124
261.251637
252.814780
244.086997
232.449953
219.940131
207.430309
194.920486
181.828812
164.373246
148.954163
135.280636
119.279701
100.369504
82.332086
66.913003
50.039289
33.456501
18.619270
2.618335
-13.303232
-27.197719
-40.500951
-54.395437
-67.403042
-80.706274
-93.122624
-104.652091
-114.999049
-128.893536
-138.944867
-151.952471
-163.777567
-173.533270
-183.288973
-199.252852
-212.851711
-224.085551
-231.771863
-241.823194
-249.805133
-257.787072
-264.882129
-272.272814
-278.776616
-288.532319
-293.262357
-300.357414
-305.383080
-308.043726
-308.634981
-311.000000
-310.408745
-309.817490
-309.817490
-309.226236
-307.748099
-306.565589
-304.496198
-300.357414
-299.174905
-292.966730
-288.827947
-280.846008
-275.820342
-266.951521
-257.195817
-249.509506
-240.640684
-229.998099
-216.694867
-203.687262
-190.088403
-177.080798
-163.777567
-149.883080
-135.101711
-118.546578
-101.400190
-83.662548
-68.881179
-52.917300
-38.727186
-21.876426
-7.686312
6.982226
21.819457
37.820393
51.202993
62.840037
76.804490
89.023386
101.242283
113.170253
125.680075
138.480823
152.736202
163.791394
175.428438
189.101964
204.811974
218.485500
226.922357
236.522919
246.996258
255.724041
265.033676
270.561272
279.579981
285.689429
292.962582
299.072030
301.690365
306.054256
306.345182
307.217961
307.799813
306.927035
307.508887
308.090739
307.799813
303.435921
301.690365
300.235734
296.453695
292.671656
286.271282
279.579981
274.634238
265.615529
254.269411
245.541628
234.777362
222.558466
210.921422
197.829747
183.865295
168.155285
152.445276
139.353601
125.098223
107.060804
87.568756
70.404116
55.275959
40.729654
24.146866
8.145931
-6.799430
-21.876426
-34.588403
-49.961027
-63.264259
-76.271863
-89.870722
-99.922053
-112.338403
-124.163498
-136.875475
-148.700570
-159.638783
-171.759506
-181.810837
-196.000951
-211.964829
-221.129278
-229.702471
-239.458175
-248.622624
-257.787072
-263.699620
-271.385932
-280.550380
-286.758555
-294.149240
-300.357414
-305.087452
-308.043726
-307.748099
-310.113118
-308.339354
-310.408745
-308.930608
-308.043726
-305.974335
-304.791825
-302.426806
-301.835551
-295.036122
-291.784221
-287.054183
-282.028517
-274.933460
-265.473384
-256.900190
-249.509506
-238.866920
-228.519962
-217.286122
-205.756654
-190.679658
-176.785171
-162.003802
-148.996198
-135.988593
-118.546578
-100.513308
-84.845057
-69.768061
-53.212928
-38.431559
-21.580798
-5.321293
7.273152
22.401310
36.947615
50.330215
64.294668
75.931712
89.023386
101.242283
112.879326
125.098223
139.062675
151.863424
163.791394
174.264733
188.811038
204.521048
217.030870
226.922357
236.522919
247.287184
255.433115
262.706268
270.561272
278.125351
285.689429
292.380730
298.781104
302.854069
306.345182
306.636109
309.545370
307.217961
307.799813
307.799813
307.217961
306.636109
304.599626
301.690365
299.944808
296.453695
291.217025
286.853134
281.325538
274.052385
263.579046
257.178672
246.414406
237.395697
224.885875
213.248831
198.702526
184.156221
170.191768
154.190833
142.844715
126.552853
111.133770
91.932647
75.931712
60.221703
44.511693
28.219832
12.218896
-2.069392
-17.442015
-32.814639
-46.117871
-60.012357
-72.133080
-86.914449
-98.148289
-109.677757
-122.094106
-132.736692
-147.222433
-159.047529
-169.394487
-179.741445
-193.635932
-209.895437
-219.946768
-229.702471
-237.684411
-248.622624
-256.013308
-264.290875
-269.907795
-279.072243
-284.984791
-292.671103
-298.879278
-302.426806
-306.269962
-307.748099
-307.748099
-309.226236
-309.521863
-308.339354
-306.565589
-306.565589
-304.791825
-303.018061
-300.948669
-296.809886
-292.079848
-286.462928
-279.367871
-273.750951
-265.177757
-256.900190
-246.848859
-239.753802
-227.633080
-216.399240
-203.391635
-190.384030
-175.307034
-160.230038
-147.518061
-133.623574
-117.068441
-99.035171
-81.888783
-66.811787
-51.439163
-37.249049
-20.102662
-5.321293
10.182413
24.728718
39.275023
52.366698
64.585594
79.131899
89.896165
102.696913
116.079514
127.134705
140.517306
153.027128
164.664172
175.719364
190.847521
205.684752
218.485500
228.086062
237.686623
246.123480
256.305893
263.579046
272.015903
279.289055
288.889616
295.289991
300.235734
304.890552
305.472404
308.963517
309.254443
308.090739
309.254443
308.381665
308.090739
307.217961
304.308700
303.144995
300.526660
296.453695
292.671656
287.434986
281.034612
274.343312
265.033676
255.433115
248.450889
237.395697
224.013096
213.539757
200.448082
185.028999
170.773620
155.354537
142.262862
126.552853
109.388213
92.514500
75.058934
60.512629
44.511693
27.637979
13.091674
-4.434411
-17.146388
-31.927757
-45.526616
-58.829848
-73.315589
-86.027567
-97.852662
-110.269011
-121.502852
-133.623574
-146.039924
-157.569392
-170.281369
-179.741445
-195.114068
-209.895437
-219.651141
-230.589354
-238.866920
-246.553232
-256.604563
-264.290875
-270.203422
-278.480989
-288.236692
-294.149240
-300.357414
-304.496198
-305.678707
-308.339354
-306.565589
-308.634981
-309.226236
-307.452471
-309.226236
-305.678707
-305.087452
-302.426806
-300.653042
-297.105513
-292.966730
-287.054183
-279.663498
-273.159696
-266.064639
-257.195817
-246.553232
-238.866920
-226.746198
-214.625475
-202.800380
-189.201521
-174.420152
-160.230038
-146.631179
-132.736692
-115.294677
-98.739544
-80.410646
-66.516160
-50.552281
-33.997148
-18.624525
-2.660646
10.764266
25.310571
40.147802
53.821328
66.622077
78.840973
91.059869
105.315248
115.788587
128.007484
141.390084
154.772685
165.246024
177.755847
192.011225
206.848457
220.231057
228.376988
237.104771
248.450889
255.724041
264.160898
272.597755
279.870907
286.853134
295.580917
299.072030
305.472404
307.217961
308.090739
309.545370
308.672591
309.836296
308.672591
308.090739
306.345182
304.890552
302.854069
300.817587
296.744621
292.671656
287.434986
281.034612
274.343312
265.615529
257.760524
248.741815
239.432180
226.049579
215.867166
201.029935
188.520112
173.973807
157.681946
143.135641
130.916745
112.006548
93.969130
77.968195
61.676333
45.966324
30.838167
15.128157
-0.886882
-15.668251
-28.380228
-43.161597
-57.056084
-69.472433
-82.480038
-94.600760
-106.721483
-119.433460
-130.371673
-142.788023
-156.978137
-168.211977
-177.080798
-191.862167
-207.530418
-219.059886
-227.928707
-237.684411
-245.666350
-255.422053
-263.108365
-270.203422
-278.776616
-286.167300
-291.488593
-298.583650
-303.609316
-304.791825
-307.748099
-307.452471
-308.043726
-308.930608
-307.748099
-307.748099
-305.678707
-304.791825
-301.539924
-299.470532
-295.331749
-290.010456
-287.054183
-279.959125
-271.977186
-264.882129
-256.900190
-247.440114
-237.093156
-226.450570
-213.738593
-201.617871
-188.610266
-173.828897
-159.343156
-146.039924
-131.554183
-113.816540
-98.443916
-81.297529
-64.742395
-48.482890
-34.292776
-17.737643
-1.773764
11.346118
27.056127
40.438728
53.821328
66.622077
80.295603
93.096352
104.733396
116.661366
128.880262
141.971936
153.899906
166.118803
176.883068
192.593078
208.303087
219.358279
228.958840
237.686623
248.159963
257.469598
264.742750
272.015903
279.870907
287.725912
294.999065
301.981291
304.308700
306.636109
308.672591
308.963517
309.254443
308.963517
308.963517
309.254443
307.799813
305.472404
302.563143
300.235734
297.326473
292.671656
287.144060
281.616464
274.343312
265.324602
256.887746
246.996258
237.977549
226.049579
213.248831
202.484565
186.483630
172.228251
158.263798
144.008419
130.334892
112.006548
93.387278
77.968195
62.258185
46.839102
31.129093
14.255379
-1.773764
-16.259506
-30.153992
-44.935361
-57.647338
-71.246198
-83.366920
-96.670152
-108.790875
-119.729087
-131.849810
-145.153042
-157.569392
-167.620722
-177.967681
-194.818441
-207.826046
-219.946768
-228.815589
-238.275665
-248.031369
-256.900190
-264.882129
-270.499049
-279.367871
-284.984791
-292.671103
-298.583650
-303.904943
-306.269962
-308.339354
-308.339354
-308.634981
-308.930608
-308.043726
-307.452471
-306.861217
-303.313688
-301.835551
-299.174905
-294.740494
-290.897338
-287.054183
-279.959125
-271.977186
-263.699620
-255.126426
-245.961977
-238.275665
-226.154943
-214.921103
-201.617871
-187.427757
-172.942015
-159.638783
-146.039924
-130.667300
-113.816540
-94.896388
-78.932510
-64.151141
-48.778517
-33.405894
-17.146388
-2.069392
11.927970
27.056127
41.020580
55.566885
68.367633
80.877456
94.550982
105.315248
116.952292
129.462114
141.971936
154.481759
166.409729
177.755847
192.011225
208.594013
221.103835
228.958840
239.723106
249.032741
258.051450
265.033676
272.597755
280.161833
287.144060
294.126286
300.526660
305.763330
306.636109
308.090739
309.836296
309.254443
308.963517
308.963517
308.672591
307.217961
305.472404
304.017774
300.235734
296.744621
291.798877
286.562208
281.034612
274.052385
267.070159
256.887746
248.741815
239.141254
227.213283
214.412535
201.902713
188.520112
172.810103
158.263798
145.172123
130.334892
113.752105
93.969130
77.095416
62.840037
46.548176
32.001871
15.128157
-0.000000
-14.190114
-29.562738
-43.752852
-57.647338
-71.541825
-83.366920
-96.078897
-108.199620
-119.433460
-131.554183
-144.266160
-157.569392
-169.394487
-178.854563
-193.340304
-209.599810
-218.764259
-228.519962
-239.162548
-246.257605
-256.604563
-263.995247
-271.385932
-278.776616
-287.349810
-294.149240
-299.174905
-303.904943
-306.565589
-306.861217
-308.043726
-308.043726
-308.339354
-307.748099
-307.452471
-306.861217
-304.496198
-302.131179
-298.879278
-295.036122
-291.784221
-284.689163
-279.367871
-274.046578
-263.995247
-255.422053
-246.848859
-237.093156
-225.563688
-214.034221
-201.026616
-188.610266
-172.646388
-158.456274
-146.926806
-131.258555
-114.112167
-95.783270
-79.523764
-63.264259
-48.187262
-31.632129
-15.668251
-0.886882
12.800748
26.765201
42.184284
55.566885
67.494855
79.422825
94.260056
105.024322
116.370440
129.462114
142.553789
153.899906
165.827877
175.719364
191.429373
206.848457
220.231057
228.958840
238.850327
248.450889
256.596819
264.742750
273.470533
280.743686
286.853134
296.744621
299.362956
305.181478
306.636109
308.381665
308.963517
308.963517
308.963517
308.963517
307.799813
307.799813
305.181478
303.726848
300.235734
296.162769
292.380730
286.562208
281.325538
273.470533
265.906455
256.887746
248.450889
240.304958
226.922357
214.412535
202.484565
188.229186
173.101029
157.972872
145.172123
130.625819
112.588400
95.132834
77.677268
63.130964
47.420954
30.547240
16.000935
0.581852
-14.190114
-28.380228
-42.274715
-57.351711
-68.289924
-83.071293
-95.192015
-106.721483
-119.137833
-129.484791
-143.674905
-156.091255
-167.620722
-177.672053
-190.975285
-207.826046
-219.059886
-228.519962
-239.753802
-246.848859
-256.604563
-263.108365
-269.612167
-277.594106
-284.689163
-292.375475
-298.879278
-304.200570
-305.974335
-306.269962
-307.748099
-307.452471
-309.521863
-307.156844
-307.156844
-306.269962
-303.904943
-301.539924
-300.061787
-294.444867
-291.488593
-284.097909
-277.002852
-271.681559
-263.403992
-256.013308
-247.144487
-236.206274
-225.268061
-213.147338
-200.730989
-187.132129
-171.759506
-158.160646
-145.153042
-129.780418
-112.338403
-94.600760
-78.045627
-62.377376
-47.004753
-31.040875
-15.668251
-0.000000
13.382601
27.637979
41.893358
56.439663
69.531338
82.913938
95.132834
105.606174
118.406922
130.043966
144.008419
155.936389
167.573433
178.919551
193.465856
208.012161
219.940131
229.831618
239.432180
249.032741
258.633302
265.615529
273.179607
281.907390
288.307764
295.871843
300.526660
305.472404
306.345182
308.963517
308.963517
309.545370
309.545370
308.672591
308.963517
307.799813
304.890552
303.435921
299.944808
297.035547
290.926099
287.434986
282.489242
274.343312
265.324602
257.178672
248.159963
239.432180
228.086062
214.994387
201.320861
187.938260
172.228251
157.972872
144.590271
130.043966
112.588400
94.550982
77.386342
63.130964
46.839102
31.420019
16.000935
-0.000000
-13.894487
-28.675856
-42.274715
-55.873574
-69.768061
-82.184411
-95.192015
-107.903992
-117.659696
-130.667300
-144.857414
-157.273764
-168.211977
-178.263308
-193.340304
-208.712928
-219.355513
-228.519962
-238.275665
-248.031369
-255.717681
-264.290875
-271.090304
-279.367871
-286.167300
-293.853612
-299.766160
-302.722433
-305.678707
-306.565589
-307.748099
-308.043726
-308.339354
-307.748099
-307.748099
-307.156844
-305.383080
-302.722433
-298.879278
-295.036122
-290.010456
-284.984791
-279.663498
-271.681559
-263.403992
-253.943916
-245.075095
-235.615019
-224.381179
-212.556084
-198.661597
-185.949620
-172.055133
-156.682510
-143.970532
-128.893536
-112.042776
-92.826996
-78.045627
-62.377376
-47.004753
-31.336502
-15.668251
0.290926
13.964453
29.092610
43.347989
57.312442
69.531338
82.332086
96.587465
107.642657
118.697848
131.498597
144.299345
157.100094
168.737138
179.792329
193.756782
208.594013
220.231057
229.249766
239.432180
247.869036
257.469598
265.906455
273.470533
281.325538
289.471469
296.162769
301.108513
304.308700
307.217961
309.254443
309.836296
309.254443
309.254443
309.545370
309.545370
308.381665
305.763330
303.726848
300.235734
297.326473
291.217025
286.271282
281.616464
274.052385
265.906455
257.760524
248.741815
237.104771
226.631431
215.867166
201.902713
188.811038
174.264733
158.554724
146.044902
130.625819
113.170253
95.132834
77.677268
64.294668
47.711880
31.420019
16.582788
0.581852
-13.303232
-27.493346
-41.979087
-55.282319
-68.881179
-82.184411
-94.009506
-105.834601
-116.772814
-130.076046
-143.083650
-155.204373
-165.551331
-177.967681
-192.453422
-207.826046
-218.173004
-229.406844
-237.684411
-246.257605
-256.013308
-262.812738
-268.725285
-276.411597
-286.758555
-293.262357
-299.174905
-303.313688
-303.609316
-306.861217
-307.156844
-308.043726
-307.748099
-306.565589
-306.565589
-304.791825
-303.609316
-302.722433
-298.583650
-295.036122
-287.941065
-283.506654
-279.663498
-271.977186
-263.108365
-253.352662
-245.961977
-235.910646
-225.859316
-213.147338
-200.730989
-186.540875
-171.759506
-158.751901
-144.561787
-128.893536
-112.634030
-93.713878
-77.750000
-61.490494
-46.413498
-30.745247
-13.303232
0.581852
15.128157
30.547240
43.929841
56.730589
70.113190
81.750234
94.260056
106.769878
118.697848
131.207671
144.590271
156.227315
167.282507
179.210477
193.465856
210.630496
221.103835
230.122544
241.468662
249.905519
259.215154
265.324602
273.470533
281.907390
288.889616
297.035547
301.399439
304.017774
307.217961
308.090739
310.709074
309.545370
309.836296
309.836296
308.381665
306.636109
306.636109
301.981291
300.235734
297.326473
293.253508
287.144060
281.325538
274.052385
265.324602
257.178672
248.450889
237.686623
226.631431
214.703461
201.902713
188.520112
173.101029
157.972872
144.299345
130.334892
111.715622
94.260056
77.095416
63.421890
48.293732
31.710945
15.710009
-0.000000
-14.190114
-29.267110
-42.274715
-57.056084
-68.881179
-82.775665
-94.896388
-106.425856
-118.842205
-131.849810
-144.561787
-156.682510
-168.211977
-178.854563
-192.749049
-209.599810
-219.946768
-229.111217
-238.866920
-246.848859
-257.195817
-264.882129
-270.499049
-278.480989
-286.167300
-293.557985
-299.766160
-304.200570
-305.087452
-306.269962
-306.565589
-308.339354
-308.930608
-307.748099
-307.748099
-306.269962
-302.722433
-300.653042
-298.583650
-294.740494
-288.827947
-284.097909
-279.072243
-270.499049
-262.221483
-252.761407
-245.666350
-236.797529
-225.563688
-213.738593
-199.548479
-186.245247
-171.463878
-157.273764
-144.266160
-129.189163
-112.042776
-92.826996
-76.271863
-61.490494
-46.117871
-30.449620
-14.781369
1.163704
16.000935
30.256314
43.638915
56.730589
70.113190
82.041160
96.005613
107.351731
118.115996
130.916745
143.426567
155.936389
166.991581
177.464920
194.338634
208.884939
220.521983
229.540692
240.595884
249.614593
257.469598
265.906455
272.888681
281.325538
287.725912
296.453695
301.399439
304.890552
307.799813
308.090739
308.381665
310.709074
310.127222
309.836296
308.672591
308.090739
306.345182
302.563143
300.526660
297.035547
292.671656
287.434986
280.743686
273.470533
265.615529
257.469598
248.159963
237.104771
226.049579
216.739944
200.448082
188.811038
171.646399
157.391020
144.008419
130.043966
112.879326
93.678204
78.259121
62.549111
46.839102
32.292797
16.000935
0.290926
-14.190114
-28.084601
-42.865970
-56.464829
-68.881179
-83.662548
-95.192015
-107.017110
-118.546578
-131.849810
-143.674905
-156.978137
-167.916350
-179.150190
-193.635932
-208.417300
-218.764259
-229.111217
-237.980038
-248.326996
-256.013308
-264.290875
-271.681559
-278.776616
-286.462928
-292.375475
-300.357414
-303.609316
-305.087452
-306.861217
-308.043726
-307.748099
-308.043726
-307.452471
-307.452471
-306.269962
-303.904943
-301.539924
-298.879278
-295.331749
-291.192966
-284.984791
-277.889734
-270.794677
-263.108365
-254.535171
-245.370722
-235.319392
-224.972433
-212.556084
-198.957224
-186.836502
-171.463878
-156.978137
-143.674905
-128.006654
-110.564639
-93.122624
-77.454373
-62.673004
-46.413498
-29.858365
-14.190114
1.454630
15.128157
29.965388
44.511693
58.185220
71.276894
83.204864
95.423761
107.060804
118.697848
132.080449
143.717493
155.936389
167.573433
178.046773
194.629560
208.884939
220.521983
230.704397
239.141254
249.614593
258.342376
267.070159
274.634238
282.489242
290.053321
297.326473
301.981291
306.345182
307.508887
308.381665
309.254443
309.545370
308.963517
308.090739
308.672591
307.799813
306.054256
303.435921
301.108513
296.162769
292.089804
287.434986
280.452760
274.052385
265.033676
257.178672
246.705332
237.395697
226.922357
215.285313
200.739008
188.229186
174.264733
157.972872
143.717493
128.007484
112.297474
94.260056
78.550047
61.967259
48.293732
31.710945
16.000935
0.290926
-13.303232
-27.788973
-42.570342
-57.056084
-70.063688
-84.253802
-94.896388
-107.903992
-120.320342
-131.849810
-145.744297
-157.569392
-168.211977
-179.445817
-193.931559
-209.008555
-220.538023
-229.702471
-239.753802
-246.848859
-256.604563
-265.177757
-271.681559
-279.367871
-288.236692
-293.853612
-301.244297
-304.200570
-305.087452
-305.974335
-308.930608
-308.634981
-307.748099
-307.452471
-306.861217
-306.269962
-303.609316
-300.653042
-297.992395
-293.853612
-289.419202
-284.689163
-277.298479
-270.794677
-263.699620
-254.535171
-244.779468
-235.319392
-224.676806
-211.669202
-198.957224
-186.836502
-171.168251
-158.456274
-143.970532
-128.893536
-111.451521
-91.348859
-76.567490
-60.603612
-46.117871
-30.153992
-13.598859
1.454630
16.291862
29.965388
43.057063
57.312442
70.404116
83.204864
96.296539
107.060804
117.825070
131.498597
143.426567
156.518241
167.282507
178.628625
194.338634
208.884939
220.231057
229.540692
239.432180
248.741815
258.633302
265.615529
273.470533
281.325538
287.725912
295.871843
300.526660
305.472404
307.508887
308.381665
309.836296
308.381665
309.836296
309.254443
308.381665
306.927035
304.017774
303.726848
301.108513
296.453695
291.798877
286.562208
280.452760
274.343312
266.197381
257.178672
248.450889
237.977549
225.467727
214.412535
201.611787
187.938260
172.810103
159.136576
145.463050
130.043966
113.461179
94.841908
77.968195
63.712816
47.420954
32.292797
16.582788
0.581852
-14.485741
-27.788973
-41.979087
-55.282319
-68.289924
-81.001901
-94.896388
-106.130228
-117.955323
-130.076046
-143.083650
-155.500000
-167.916350
-177.672053
-192.749049
-208.121673
-219.355513
-228.815589
-238.275665
-247.144487
-255.422053
-263.108365
-271.681559
-280.254753
-285.871673
-293.853612
-298.288023
-302.426806
-307.156844
-306.565589
-306.861217
-307.156844
-307.452471
-308.043726
-308.043726
-304.791825
-303.313688
-302.426806
-297.992395
-295.036122
-290.601711
-284.097909
-278.480989
-270.499049
-261.630228
-255.126426
-245.370722
-236.206274
-223.198669
-210.782319
-199.252852
-185.062738
-170.281369
-156.978137
-142.492395
-127.711027
-108.790875
-91.940114
-73.611217
-59.421103
-44.048479
-27.788973
-12.120722
3.200187
17.164640
32.001871
45.966324
58.185220
72.440599
84.368569
98.333022
108.224509
120.443405
132.662301
146.044902
157.100094
169.609916
179.210477
196.084191
208.303087
221.394761
230.122544
239.432180
249.905519
257.760524
267.361085
273.761459
283.362021
289.762395
296.744621
301.690365
306.927035
307.799813
308.963517
310.127222
309.254443
309.545370
308.963517
309.545370
306.927035
305.472404
303.435921
299.072030
295.871843
291.798877
286.271282
280.743686
274.052385
264.742750
256.596819
247.869036
238.559401
226.631431
214.121609
201.611787
186.192703
173.682881
157.972872
144.008419
129.171188
111.133770
94.550982
77.386342
62.258185
47.711880
31.129093
14.255379
-0.000000
-14.485741
-29.858365
-43.161597
-56.169202
-69.176806
-82.480038
-94.896388
-106.721483
-117.955323
-132.145437
-144.561787
-157.273764
-169.394487
-178.263308
-196.000951
-208.712928
-220.833650
-230.589354
-240.345057
-249.213878
-256.604563
-263.699620
-273.455323
-279.072243
-286.167300
-295.036122
-300.061787
-303.609316
-306.269962
-306.861217
-307.748099
-308.043726
-307.452471
-306.861217
-307.452471
-306.269962
-303.313688
-301.244297
-298.288023
-293.853612
-288.532319
-284.689163
-278.776616
-270.499049
-262.517110
-253.648289
-245.961977
-235.910646
-224.381179
-212.260456
-198.957224
-185.358365
-171.463878
-156.386882
-141.901141
-128.597909
-109.677757
-92.531369
-75.680608
-60.899240
-45.230989
-28.971483
-12.711977
2.618335
16.582788
31.420019
45.384471
59.057998
71.276894
83.495790
97.751169
108.224509
118.988775
131.789523
144.590271
157.391020
167.282507
178.919551
195.793265
210.339570
220.812909
230.413471
240.304958
249.614593
258.633302
266.488307
275.216090
283.071094
288.889616
297.326473
301.108513
306.636109
307.508887
308.672591
309.545370
311.000000
308.963517
308.963517
308.963517
307.799813
305.472404
303.144995
299.944808
296.453695
292.089804
287.434986
280.743686
273.761459
265.324602
256.305893
246.996258
236.522919
226.049579
213.830683
201.029935
186.192703
172.810103
157.100094
143.426567
129.171188
110.842844
93.387278
78.550047
61.676333
48.293732
29.674462
13.964453
-0.591255
-15.076996
-28.971483
-43.752852
-57.942966
-70.654943
-82.480038
-95.783270
-107.608365
-118.546578
-131.258555
-146.039924
-158.456274
-167.916350
-179.445817
-193.635932
-209.895437
-221.129278
-228.224335
-239.162548
-247.735741
-256.900190
-264.586502
-271.681559
-279.663498
-285.871673
-293.557985
-300.061787
-303.018061
-307.156844
-308.043726
-308.339354
-308.043726
-307.452471
-308.043726
-304.791825
-305.383080
-303.018061
-301.244297
-298.583650
-293.853612
-289.123574
-284.393536
-277.889734
-272.568441
-263.403992
-254.830798
-245.666350
-234.432510
-223.198669
-212.260456
-199.548479
-185.062738
-170.281369
-154.613118
-141.901141
-125.937262
-107.312738
-91.053232
-73.906844
-59.125475
-41.979087
-26.902091
-10.051331
4.072965
17.746492
32.583723
46.839102
60.803555
73.604303
85.241347
97.460243
109.097287
122.188962
133.535080
146.044902
160.300281
168.737138
180.374181
196.084191
210.630496
221.976614
231.868101
241.177736
249.323667
259.506080
266.488307
273.470533
281.616464
289.471469
295.580917
302.272217
305.472404
308.672591
308.381665
310.709074
310.127222
309.545370
310.127222
308.963517
308.090739
306.345182
302.854069
299.653882
296.744621
292.380730
287.434986
281.325538
273.470533
264.742750
256.596819
247.578110
237.977549
226.049579
214.121609
201.611787
187.065482
172.810103
157.972872
145.172123
129.171188
111.424696
95.423761
77.968195
62.258185
47.711880
31.710945
16.582788
1.745557
-12.416350
-28.675856
-41.387833
-56.169202
-69.472433
-82.184411
-94.896388
-105.834601
-118.546578
-130.962928
-143.379278
-156.682510
-167.029468
-178.854563
-194.227186
-209.304183
-219.059886
-229.998099
-240.049430
-248.326996
-257.787072
-264.586502
-272.272814
-279.367871
-286.167300
-294.740494
-297.401141
-303.904943
-306.269962
-306.269962
-307.156844
-307.156844
-306.565589
-306.861217
-307.452471
-305.087452
-303.018061
-301.835551
-298.879278
-293.557985
-287.941065
-283.211027
-278.480989
-269.907795
-262.517110
-253.648289
-245.075095
-235.319392
-222.903042
-211.077947
-199.548479
-183.584601
-169.985741
-156.091255
-141.309886
-127.119772
-108.495247
-90.757605
-74.498099
-59.125475
-43.752852
-27.788973
-11.233840
3.782039
18.037418
32.001871
46.548176
59.930776
72.440599
84.950421
97.751169
109.097287
119.570627
133.535080
144.881197
157.681946
169.318990
180.374181
194.629560
209.757717
221.103835
230.995323
239.432180
251.069224
258.633302
266.779233
274.634238
282.780168
289.471469
297.035547
301.399439
305.472404
307.799813
308.963517
309.836296
310.709074
310.127222
311.000000
309.254443
308.090739
305.472404
303.435921
299.653882
297.035547
292.089804
287.144060
280.743686
273.761459
264.742750
257.760524
247.287184
238.559401
226.922357
214.121609
201.902713
186.774556
173.682881
159.136576
144.299345
129.462114
111.715622
94.841908
77.386342
62.258185
48.293732
32.583723
14.837231
0.290926
-13.894487
-28.084601
-42.865970
-54.986692
-68.585551
-81.297529
-95.192015
-105.834601
-117.364068
-130.076046
-143.379278
-155.204373
-167.029468
-178.263308
-193.931559
-209.599810
-219.059886
-228.815589
-238.866920
-248.031369
-256.308935
-262.517110
-271.977186
-280.254753
-286.758555
-292.966730
-300.357414
-303.018061
-305.087452
-306.861217
-307.748099
-308.043726
-307.452471
-306.861217
-305.383080
-305.087452
-302.426806
-300.061787
-297.992395
-292.966730
-289.419202
-284.097909
-276.707224
-269.316540
-262.221483
-253.648289
-244.188213
-233.545627
-224.676806
-210.486692
-198.070342
-182.697719
-169.098859
-154.317490
-139.831749
-125.937262
-107.312738
-88.983840
-74.498099
-57.351711
-43.457224
-26.606464
-10.938213
4.072965
18.910196
33.165575
46.548176
61.094481
72.440599
85.823199
99.205800
110.842844
121.025257
133.826006
146.626754
160.882133
170.482694
181.246960
196.084191
211.794200
223.140318
231.286249
241.468662
251.360150
260.087933
266.197381
275.216090
281.907390
290.053321
298.781104
301.981291
306.345182
308.090739
310.127222
310.418148
309.836296
309.545370
309.545370
308.672591
307.217961
304.890552
303.435921
299.944808
297.035547
291.798877
286.853134
281.034612
272.597755
264.742750
255.724041
246.705332
237.977549
225.758653
214.703461
201.320861
187.065482
172.810103
156.809167
143.426567
129.462114
110.842844
93.096352
77.095416
62.840037
47.130028
30.547240
13.964453
-1.773764
-14.781369
-29.562738
-43.457224
-57.056084
-70.359316
-83.366920
-96.965779
-107.903992
-119.137833
-132.441065
-145.744297
-157.865019
-169.690114
-179.741445
-196.592205
-210.486692
-221.129278
-229.111217
-238.866920
-249.509506
-257.491445
-263.108365
-271.385932
-279.663498
-286.758555
-293.557985
-298.583650
-303.018061
-305.383080
-306.565589
-306.861217
-308.339354
-305.974335
-308.043726
-307.156844
-304.791825
-303.313688
-299.766160
-298.288023
-293.262357
-288.236692
-283.211027
-277.002852
-270.203422
-261.038973
-253.648289
-245.075095
-232.363118
-222.607414
-209.599810
-196.592205
-183.880228
-168.507605
-153.134981
-140.423004
-126.528517
-107.017110
-87.801331
-71.541825
-57.647338
-41.092205
-25.423954
-10.642586
6.400374
19.492049
34.329280
48.293732
60.512629
75.349860
86.114125
99.787652
109.970065
122.479888
134.407858
146.626754
159.718428
170.191768
180.956034
196.666043
210.630496
223.140318
230.995323
241.177736
250.778297
259.215154
267.070159
274.925164
281.907390
288.598690
297.326473
301.399439
305.472404
308.963517
308.672591
310.418148
310.127222
311.000000
310.127222
309.254443
307.217961
305.472404
303.144995
300.235734
296.453695
291.798877
285.689429
280.452760
273.761459
263.869972
256.887746
247.287184
238.268475
226.049579
213.830683
202.775491
185.610851
173.682881
157.681946
144.881197
129.753040
111.133770
95.714687
78.550047
62.258185
48.002806
30.838167
14.837231
0.290926
-13.303232
-28.971483
-43.457224
-56.464829
-69.472433
-81.888783
-94.305133
-106.721483
-118.250951
-131.258555
-143.083650
-156.682510
-167.029468
-179.445817
-194.227186
-209.304183
-219.946768
-229.111217
-238.571293
-248.326996
-257.195817
-264.290875
-271.385932
-277.889734
-286.758555
-293.262357
-298.583650
-303.609316
-303.904943
-306.269962
-307.748099
-306.861217
-306.861217
-306.565589
-305.678707
-305.974335
-301.835551
-300.948669
-296.809886
-292.966730
-288.532319
-282.915399
-276.411597
-269.612167
-262.812738
-252.465779
-244.483840
-234.136882
-222.311787
-209.895437
-197.183460
-184.767110
-167.916350
-154.021863
-142.196768
-125.346008
-108.199620
-90.166350
-74.202471
-58.829848
-44.048479
-26.310837
-10.051331
4.072965
18.619270
33.165575
46.839102
60.803555
73.604303
86.114125
98.623948
109.097287
121.607109
133.244153
145.753976
159.136576
169.028064
180.956034
195.502339
211.212348
222.267540
231.577175
242.632367
250.487371
260.669785
266.488307
274.343312
282.198316
290.344247
296.453695
302.272217
305.763330
308.090739
308.090739
310.127222
310.127222
309.545370
309.836296
308.381665
307.508887
306.345182
303.144995
300.817587
296.453695
292.380730
287.144060
280.161833
273.179607
265.615529
256.305893
247.869036
236.522919
224.885875
213.830683
200.739008
187.647334
173.101029
157.100094
144.590271
129.462114
112.006548
94.550982
78.550047
63.421890
47.711880
32.001871
15.710009
1.163704
-14.190114
-27.197719
-42.274715
-55.577947
-70.359316
-82.480038
-94.009506
-105.243346
-118.546578
-130.371673
-143.083650
-156.682510
-165.846958
-178.263308
-194.227186
-208.417300
-219.651141
-228.815589
-240.049430
-246.848859
-257.195817
-263.995247
-271.090304
-278.776616
-286.462928
-292.375475
-298.879278
-301.244297
-305.383080
-306.269962
-306.269962
-307.156844
-307.156844
-307.452471
-305.087452
-304.496198
-301.539924
-300.357414
-297.992395
-291.784221
-288.827947
-283.211027
-276.707224
-268.429658
-260.743346
-251.874525
-243.892586
-232.363118
-222.016160
-209.895437
-196.296578
-182.993346
-168.507605
-152.248099
-140.423004
-123.276616
-105.538973
-89.575095
-73.315589
-58.238593
-41.092205
-25.128327
-10.346958
5.236670
19.492049
34.038354
47.711880
61.385407
74.186155
86.114125
99.496726
112.006548
122.479888
134.989710
146.917680
160.009355
170.191768
182.410664
197.247895
210.921422
223.722170
231.577175
242.632367
251.360150
260.087933
266.197381
275.216090
282.780168
290.635173
297.326473
302.563143
306.054256
307.508887
309.545370
310.127222
310.418148
309.836296
310.127222
308.963517
307.799813
306.345182
302.563143
300.235734
297.035547
291.507951
287.144060
279.870907
273.179607
264.742750
256.887746
247.578110
235.941066
225.467727
214.412535
199.866230
188.229186
172.228251
156.227315
143.717493
128.298410
109.388213
94.550982
76.804490
61.094481
47.420954
29.965388
14.546305
-1.182510
-15.372624
-30.449620
-44.048479
-57.056084
-71.246198
-82.775665
-96.078897
-107.312738
-121.798479
-132.145437
-145.153042
-157.569392
-169.098859
-180.923954
-195.114068
-210.191065
-221.424905
-229.406844
-240.345057
-250.396388
-257.195817
-264.586502
-271.090304
-279.959125
-287.645437
-295.036122
-299.766160
-303.018061
-305.087452
-307.452471
-307.452471
-306.565589
-307.156844
-307.452471
-305.678707
-305.087452
-302.426806
-300.948669
-298.288023
-293.557985
-287.941065
-283.211027
-276.411597
-269.612167
-260.152091
-252.465779
-242.710076
-233.841255
-221.424905
-208.121673
-196.000951
-182.402091
-169.098859
-153.726236
-139.831749
