278.555451
283.524436
-32.141627
-6.844976
234.711466
241.726504
220.096805
222.727444
212.497180
198.467105
184.144737
165.730263
156.376880
140.593045
125.393797
108.148496
86.226504
72.488722
60.212406
43.551692
24.844925
14.030075
-3.571292
-13.987560
-36.605742
-43.153110
-60.116746
-75.294737
-85.115789
-96.722488
-112.495694
-127.078469
-139.577990
-151.482297
-160.112919
-171.719617
-190.468900
-203.266029
-222.312919
-228.265072
-240.169378
-244.931100
-258.621053
-266.358852
-270.822967
-280.346411
-285.108134
-286.893780
-295.822010
-297.905263
-300.881340
-296.714833
-296.417225
-297.607656
-291.655502
-288.381818
-288.679426
-284.215311
-279.155981
-274.096651
-261.597129
-253.561722
-239.871770
-225.884211
-214.575120
-200.885167
-178.564593
-162.196172
-144.339713
-125.590431
-105.055502
-86.008612
-69.937799
-50.890909
-33.927273
-17.261244
-3.571292
11.399436
28.060150
42.382519
54.658835
65.473684
75.119361
84.765038
93.533835
103.179511
111.363722
120.132519
125.101504
132.701128
140.593045
145.562030
151.700188
157.546053
162.515038
168.945489
177.129699
185.606203
193.205827
200.513158
212.789474
224.481203
235.296053
244.064850
252.249060
260.140977
269.202068
273.586466
278.555451
286.739662
294.923872
299.015977
303.984962
305.446429
304.569549
310.707707
310.415414
309.830827
309.246241
310.415414
308.661654
306.323308
303.108083
302.815789
304.277256
299.308271
293.462406
289.078008
281.770677
275.340226
266.571429
258.971805
250.203008
240.849624
227.111842
216.589286
204.020677
189.113722
176.837406
162.222744
148.484962
135.331767
117.501880
100.548872
84.180451
68.981203
56.997180
39.167293
23.675752
8.768797
-6.249761
-20.237321
-34.820096
-48.807656
-62.200000
-77.377990
-90.770335
-102.377033
-116.364593
-127.673684
-141.661244
-154.160766
-166.065072
-177.374163
-192.254545
-208.027751
-220.229665
-229.753110
-239.276555
-250.288038
-257.430622
-264.870813
-272.906220
-281.536842
-287.786603
-294.929187
-301.178947
-305.940670
-307.726316
-309.214354
-309.511962
-308.916746
-310.404785
-310.107177
-309.214354
-305.940670
-305.047847
-302.071770
-299.393301
-295.822010
-287.191388
-281.239234
-273.799043
-266.061244
-255.942584
-245.823923
-236.002871
-224.098565
-209.515789
-195.825837
-179.159809
-163.386603
-146.422967
-130.352153
-115.769378
-97.615311
-78.270813
-61.009569
-42.260287
-26.189474
-10.713876
5.845865
19.875940
35.367481
46.766917
61.381579
71.611842
83.303571
94.703008
105.225564
116.332707
126.855263
137.962406
146.731203
158.422932
170.991541
179.760338
190.282895
204.605263
220.096805
228.281015
237.926692
246.403195
254.879699
263.063910
269.786654
275.340226
282.647556
291.416353
296.093045
302.523496
306.031015
306.323308
309.538534
309.246241
308.953947
308.661654
310.123120
309.538534
307.200188
305.446429
303.108083
300.477444
297.554511
292.877820
287.908835
281.186090
275.340226
266.571429
258.094925
247.280075
237.926692
225.942669
215.420113
203.728383
188.529135
174.499060
160.761278
147.315789
134.747180
116.040414
97.918233
83.011278
67.812030
53.781955
37.121241
22.214286
6.430451
-8.035407
-22.320574
-38.093780
-50.890909
-64.878469
-77.675598
-92.555981
-103.269856
-116.662201
-130.352153
-143.149282
-156.244019
-166.957895
-180.647847
-194.337799
-210.111005
-223.205742
-231.836364
-240.764593
-249.692823
-259.216268
-266.061244
-274.394258
-280.048804
-288.679426
-295.524402
-302.071770
-307.131100
-306.833493
-309.511962
-308.619139
-310.404785
-310.404785
-308.619139
-308.321531
-306.238278
-304.155024
-303.559809
-302.071770
-295.822010
-291.357895
-285.703349
-277.965550
-269.037321
-261.001914
-250.883254
-240.169378
-230.348325
-217.848804
-205.051675
-188.683254
-175.588517
-158.624880
-144.637321
-129.161722
-113.686124
-94.936842
-76.782775
-59.223923
-42.855502
-28.272727
-10.713876
3.215226
19.583647
31.859962
45.890038
58.750940
71.904135
84.180451
95.872180
107.271617
118.086466
130.070489
141.762218
153.453947
166.022556
175.960526
187.067669
200.805451
215.712406
225.942669
235.588346
243.480263
253.125940
260.433271
266.863722
275.340226
282.062970
290.831767
296.385338
300.769737
306.615602
306.615602
307.784774
308.953947
309.246241
308.661654
308.077068
308.661654
306.615602
305.154135
301.646617
300.185150
297.554511
292.293233
287.031955
279.724624
273.878759
266.279135
256.048872
247.864662
235.880639
226.234962
215.420113
201.974624
187.359962
173.037594
159.007519
145.854323
131.239662
114.286654
96.456767
81.842105
65.765977
52.028195
35.367481
20.168233
5.261278
-9.523445
-23.511005
-37.796172
-52.378947
-66.068900
-79.461244
-92.853589
-105.055502
-117.852632
-129.459330
-144.637321
-157.434450
-169.041148
-180.945455
-197.016268
-211.301435
-222.610526
-231.836364
-242.550239
-250.585646
-260.406699
-266.358852
-273.799043
-282.429665
-289.572249
-297.310048
-302.071770
-306.535885
-309.511962
-309.511962
-310.107177
-310.107177
-310.404785
-309.511962
-308.916746
-308.023923
-305.940670
-303.559809
-300.583732
-297.310048
-290.762679
-285.405742
-279.453589
-272.906220
-262.489952
-254.156938
-244.038278
-230.348325
-221.122488
-207.134928
-194.635407
-179.457416
-162.493780
-148.506220
-133.923445
-118.150239
-99.996172
-81.246890
-66.068900
-49.105263
-33.927273
-16.070813
-0.595215
13.737782
28.352444
40.921053
54.951128
67.519737
80.380639
92.072368
104.056391
115.455827
126.270677
139.716165
150.531015
163.391917
173.622180
184.729323
200.220865
214.250940
225.065789
233.542293
242.603383
250.495301
259.264098
267.156015
273.294173
283.816729
289.078008
296.093045
302.523496
305.154135
307.200188
307.492481
308.953947
308.661654
308.953947
308.369361
307.200188
306.031015
304.861842
303.984962
300.185150
297.262218
292.000940
285.862782
281.478383
273.586466
265.109962
257.218045
246.987782
237.049812
225.358083
213.958647
201.974624
186.483083
172.745301
158.130639
145.854323
131.531955
113.994361
96.164474
79.503759
65.473684
49.982143
34.490602
19.875940
3.215226
-10.118660
-24.106220
-40.177033
-53.271770
-67.854545
-82.139713
-94.341627
-106.245933
-118.447847
-131.542584
-144.934928
-158.327273
-169.338756
-181.243062
-197.313876
-212.194258
-221.717703
-232.431579
-242.550239
-251.180861
-260.704306
-267.846890
-273.203828
-282.132057
-290.167464
-297.012440
-301.774163
-306.833493
-308.619139
-308.321531
-311.000000
-310.107177
-309.511962
-310.107177
-308.321531
-307.726316
-304.750239
-303.559809
-301.476555
-296.714833
-291.655502
-286.596172
-279.453589
-272.906220
-264.870813
-254.156938
-244.931100
-232.729187
-221.420096
-207.730144
-194.337799
-179.159809
-164.279426
-149.101435
-133.328230
-118.745455
-101.484211
-83.032536
-67.854545
-51.188517
-36.308134
-20.534928
-3.571292
10.814850
26.306391
38.582707
52.612782
65.181391
76.873120
91.780075
103.471805
115.455827
126.562970
139.131579
151.700188
162.515038
174.499060
185.021617
200.805451
214.543233
225.358083
233.834586
242.895677
251.664474
258.971805
265.402256
273.294173
281.478383
287.908835
297.846805
302.231203
306.323308
306.615602
308.661654
309.246241
309.830827
309.830827
309.246241
307.784774
307.200188
304.861842
303.108083
300.477444
296.677632
292.877820
285.278195
281.186090
272.125000
264.233083
255.464286
246.403195
237.049812
224.773496
214.250940
200.513158
186.190789
171.868421
158.715226
146.146617
130.655075
113.702068
95.872180
80.672932
66.058271
50.859023
34.198308
18.999060
4.092105
-10.713876
-26.189474
-38.986603
-52.974163
-66.664115
-79.461244
-91.663158
-105.055502
-118.447847
-129.459330
-144.042105
-158.624880
-168.743541
-180.945455
-195.825837
-212.194258
-223.205742
-232.133971
-241.657416
-250.883254
-260.109091
-268.442105
-274.989474
-283.322488
-289.572249
-298.202871
-302.071770
-306.535885
-307.131100
-309.511962
-309.809569
-308.916746
-308.321531
-308.619139
-309.511962
-308.023923
-305.047847
-303.857416
-300.286124
-296.119617
-291.060287
-286.000957
-280.048804
-273.799043
-264.275598
-249.692823
-244.931100
-235.705263
-224.098565
-209.218182
-193.147368
-180.350239
-165.172249
-152.077512
-137.197129
-122.019139
-102.972249
-85.711005
-69.342584
-53.866986
-36.903349
-22.320574
-6.249761
9.353383
23.968045
37.998120
52.320489
64.304511
77.165414
88.857143
101.425752
112.532895
125.101504
137.377820
147.900376
162.807331
171.576128
184.144737
198.759398
213.958647
223.604323
232.957707
242.895677
250.495301
259.848684
268.032895
276.217105
282.939850
289.370301
296.677632
301.646617
304.277256
307.200188
307.200188
308.661654
310.123120
308.953947
307.784774
308.661654
305.738722
304.277256
301.646617
299.892857
296.385338
291.416353
287.324248
280.309211
273.586466
263.940789
255.171992
245.818609
235.880639
224.773496
213.958647
201.097744
185.313910
172.453008
156.961466
144.685150
130.655075
112.532895
97.041353
79.211466
64.304511
50.566729
33.906015
19.291353
3.215226
-11.309091
-26.189474
-40.177033
-53.866986
-67.556938
-80.651675
-93.746411
-106.245933
-117.555024
-130.947368
-144.042105
-158.029665
-169.338756
-180.350239
-197.016268
-212.789474
-222.908134
-231.836364
-243.145455
-251.478469
-260.109091
-267.251675
-274.691866
-283.620096
-291.060287
-296.417225
-301.774163
-306.238278
-306.535885
-309.511962
-308.023923
-309.809569
-309.214354
-309.214354
-308.321531
-305.940670
-304.750239
-302.666986
-299.988517
-295.524402
-291.655502
-285.703349
-279.453589
-272.608612
-263.085167
-253.264115
-244.931100
-233.324402
-222.610526
-209.218182
-195.825837
-180.647847
-166.957895
-150.887081
-136.899522
-119.638278
-103.567464
-84.520574
-70.533014
-54.462201
-37.498565
-21.725359
-5.952153
8.476504
21.921992
36.536654
50.566729
64.304511
76.288534
89.441729
102.010338
113.117481
125.686090
137.085526
149.361842
162.222744
172.160714
184.144737
198.759398
213.958647
223.896617
232.957707
242.603383
250.787594
260.433271
268.325188
276.217105
282.939850
289.078008
298.431391
302.815789
305.738722
306.615602
308.661654
309.246241
309.246241
309.246241
308.661654
308.369361
306.615602
304.861842
301.646617
299.600564
296.093045
292.000940
286.155075
279.724624
273.586466
263.648496
255.464286
246.110902
235.296053
225.650376
212.497180
199.343985
184.729323
169.822368
156.669173
142.639098
126.855263
110.194549
92.656955
77.457707
63.427632
46.766917
31.859962
16.368421
0.876880
-14.582775
-27.975120
-42.557895
-57.140670
-69.342584
-81.544498
-95.532057
-108.626794
-119.935885
-133.328230
-145.232536
-159.517703
-170.826794
-181.540670
-199.099522
-213.087081
-224.098565
-232.729187
-243.443062
-252.668900
-261.894737
-269.037321
-275.584689
-286.000957
-291.060287
-298.798086
-303.262201
-306.238278
-308.023923
-309.214354
-310.107177
-309.511962
-309.809569
-310.107177
-308.321531
-308.023923
-304.750239
-302.666986
-300.583732
-295.822010
-291.357895
-284.810526
-278.858373
-271.120574
-263.382775
-253.859330
-245.526316
-233.919617
-222.015311
-208.027751
-195.528230
-181.838278
-165.469856
-152.672727
-138.685167
-122.019139
-103.865072
-85.115789
-70.830622
-54.164593
-38.688995
-23.511005
-6.547368
7.015038
21.629699
37.413534
49.105263
63.427632
76.288534
89.149436
101.718045
112.825188
124.809211
136.500940
149.361842
161.345865
171.868421
184.437030
199.636278
213.374060
224.188910
232.373120
243.480263
251.664474
260.725564
268.032895
276.509398
282.647556
291.124060
297.846805
302.231203
305.446429
306.615602
308.369361
308.661654
308.953947
309.246241
308.077068
308.077068
306.031015
303.984962
301.646617
299.308271
296.093045
290.831767
285.570489
279.724624
271.832707
264.817669
255.464286
245.234023
235.296053
224.481203
211.328008
198.174812
184.729323
169.530075
155.207707
142.054511
126.562970
110.194549
92.656955
76.580827
59.920113
46.182331
30.106203
14.030075
-0.595215
-15.177990
-30.653589
-43.450718
-56.843062
-70.235407
-83.925359
-96.424880
-108.924402
-121.721531
-133.923445
-147.613397
-160.410526
-170.826794
-184.219139
-199.397129
-215.170335
-224.991388
-233.622010
-244.038278
-252.668900
-261.894737
-269.334928
-274.989474
-284.810526
-290.465072
-298.798086
-303.559809
-306.535885
-308.023923
-308.619139
-309.511962
-309.809569
-309.511962
-309.214354
-308.619139
-306.535885
-305.047847
-303.559809
-299.988517
-295.524402
-291.060287
-284.810526
-277.965550
-270.227751
-261.597129
-253.859330
-243.443062
-233.622010
-220.527273
-208.027751
-194.337799
-180.350239
-164.577033
-151.184689
-136.899522
-121.423923
-102.972249
-84.818182
-69.342584
-52.378947
-38.093780
-20.832536
-6.844976
9.353383
23.675752
37.705827
52.028195
64.596805
77.165414
90.318609
102.594925
114.578947
125.978383
138.254699
149.361842
162.807331
172.745301
184.437030
200.220865
213.958647
224.773496
234.711466
242.311090
253.710526
260.433271
267.740602
275.924812
283.232143
290.831767
298.139098
303.692669
304.861842
307.784774
308.077068
308.953947
308.953947
309.246241
309.830827
307.784774
306.615602
305.154135
302.523496
300.769737
296.093045
291.124060
285.570489
278.847744
272.417293
263.648496
253.710526
244.649436
235.003759
223.312030
210.451128
197.590226
183.852444
170.114662
154.330827
142.346805
126.855263
108.733083
93.533835
76.873120
61.381579
46.474624
30.983083
15.491541
-0.297608
-14.880383
-30.355981
-43.450718
-56.843062
-70.235407
-83.627751
-95.829665
-108.329187
-120.233493
-133.625837
-146.422967
-159.220096
-171.422010
-183.326316
-200.289952
-214.277512
-224.396172
-232.729187
-243.443062
-253.264115
-261.894737
-267.846890
-275.882297
-284.512919
-290.465072
-298.798086
-302.666986
-305.047847
-307.428708
-308.619139
-310.107177
-309.809569
-308.916746
-309.214354
-308.619139
-306.833493
-303.857416
-301.476555
-299.393301
-294.631579
-290.167464
-285.405742
-278.560766
-270.822967
-261.299522
-252.966507
-244.931100
-232.729187
-220.527273
-207.730144
-194.040191
-181.243062
-165.469856
-150.291866
-138.387560
-120.828708
-103.567464
-86.008612
-70.830622
-53.866986
-38.688995
-24.106220
-7.142584
8.184211
22.798872
37.413534
49.982143
63.719925
74.242481
88.564850
100.841165
114.286654
125.393797
136.793233
149.654135
162.222744
172.745301
185.021617
200.805451
214.543233
225.065789
233.834586
243.187970
251.956767
261.310150
268.325188
276.801692
284.401316
291.708647
299.015977
303.108083
306.323308
307.492481
308.661654
308.953947
308.953947
309.538534
308.369361
306.907895
306.031015
303.984962
302.523496
298.431391
296.969925
291.124060
285.278195
281.478383
271.540414
263.063910
253.710526
244.941729
235.003759
222.435150
210.743421
197.882519
183.852444
169.822368
154.915414
141.177632
126.270677
108.440789
92.072368
75.703947
60.796992
45.305451
30.398496
13.737782
-1.785646
-15.475598
-31.546411
-43.748325
-57.140670
-71.128230
-83.032536
-96.722488
-108.031579
-121.721531
-133.328230
-146.720574
-159.517703
-169.636364
-183.326316
-198.504306
-214.277512
-224.098565
-233.324402
-242.550239
-253.561722
-260.704306
-267.846890
-275.584689
-283.024880
-290.465072
-297.310048
-303.262201
-306.238278
-308.619139
-308.916746
-309.214354
-309.214354
-308.023923
-308.916746
-308.023923
-305.940670
-305.047847
-301.178947
-299.095694
-295.524402
-290.167464
-284.512919
-276.775120
-270.525359
-262.489952
-252.073684
-242.550239
-232.431579
-219.634450
-206.539713
-194.040191
-179.457416
-164.874641
-151.184689
-136.304306
-120.828708
-101.781818
-84.818182
-70.533014
-53.569378
-38.093780
-21.725359
-5.952153
8.184211
22.506579
37.121241
49.689850
64.012218
76.873120
89.441729
102.887218
113.702068
123.932331
137.377820
150.238722
162.807331
172.453008
185.606203
201.390038
215.420113
225.650376
234.419173
245.526316
253.418233
262.479323
270.371241
277.678571
286.447368
292.000940
299.015977
304.277256
305.738722
308.077068
308.369361
308.661654
309.246241
308.953947
309.830827
308.953947
306.907895
305.738722
302.815789
299.892857
296.969925
290.539474
284.985902
279.140038
271.540414
262.479323
253.418233
244.941729
233.834586
222.727444
209.866541
196.713346
182.683271
167.484023
153.746241
140.593045
124.516917
106.102444
90.026316
74.534774
59.043233
43.551692
26.890977
12.276316
-3.868900
-17.856459
-31.844019
-45.533971
-58.628708
-73.509091
-87.496651
-98.508134
-111.602871
-123.804785
-136.601914
-149.101435
-161.600957
-172.612440
-184.219139
-201.777990
-215.467943
-224.098565
-235.110048
-244.038278
-253.264115
-261.299522
-268.739713
-276.775120
-284.810526
-292.548325
-296.714833
-302.369378
-306.535885
-308.321531
-309.511962
-309.511962
-310.404785
-310.404785
-310.107177
-307.131100
-307.131100
-303.262201
-301.476555
-299.393301
-294.929187
-289.572249
-284.512919
-277.965550
-270.822967
-261.001914
-251.180861
-244.335885
-233.026794
-218.741627
-207.432536
-193.444976
-179.755024
-164.279426
-148.803828
-137.494737
-119.043062
-102.079426
-84.222967
-68.152153
-52.081340
-37.498565
-20.832536
-5.356938
9.061090
23.968045
39.459586
51.443609
65.765977
78.042293
90.610902
102.887218
114.578947
126.270677
138.546992
151.992481
164.561090
173.329887
187.359962
202.851504
216.004699
225.942669
235.880639
244.649436
254.295113
263.063910
270.078947
277.386278
284.693609
292.293233
299.308271
305.154135
306.031015
308.953947
308.661654
310.123120
309.538534
310.707707
308.953947
308.077068
306.615602
304.277256
301.646617
299.600564
295.800752
289.078008
284.693609
278.847744
271.540414
262.479323
253.125940
244.064850
233.834586
223.019737
209.281955
195.251880
182.390977
166.899436
154.330827
140.008459
124.516917
105.225564
89.734023
74.827068
58.458647
43.843985
28.352444
11.984023
-2.380861
-16.070813
-30.653589
-44.343541
-58.331100
-72.318660
-85.711005
-98.508134
-111.007656
-122.614354
-135.113876
-148.506220
-161.303349
-172.017225
-185.111962
-200.587560
-213.979904
-225.288995
-234.812440
-244.335885
-253.561722
-262.489952
-269.930144
-278.263158
-284.512919
-292.845933
-297.905263
-302.964593
-304.452632
-308.321531
-307.428708
-308.916746
-308.619139
-308.321531
-307.726316
-306.833493
-306.238278
-303.559809
-302.666986
-298.500478
-293.441148
-287.786603
-282.727273
-277.667943
-268.739713
-260.406699
-251.180861
-243.145455
-232.431579
-220.229665
-206.837321
-194.040191
-179.159809
-164.874641
-149.994258
-136.899522
-120.531100
-101.781818
-85.115789
-69.044976
-53.866986
-36.605742
-21.725359
-5.952153
8.476504
22.214286
37.413534
50.274436
64.596805
76.873120
90.610902
102.302632
113.409774
125.101504
137.962406
151.407895
163.099624
172.745301
187.944549
201.974624
215.712406
225.942669
234.126880
244.941729
253.418233
262.187030
270.955827
278.847744
284.985902
293.462406
299.015977
305.154135
306.323308
307.784774
308.661654
309.830827
309.246241
309.246241
308.077068
308.077068
306.323308
303.692669
302.231203
299.308271
296.093045
291.124060
285.278195
278.555451
270.955827
262.771617
254.879699
244.649436
233.542293
222.142857
211.035714
196.128759
183.560150
167.776316
153.453947
139.423872
123.055451
105.810150
89.149436
73.950188
58.166353
42.674812
27.767857
11.107143
-2.678469
-17.261244
-31.844019
-44.343541
-59.223923
-72.318660
-86.306220
-97.317703
-111.305263
-123.209569
-134.816268
-149.101435
-161.303349
-170.529187
-186.302392
-201.182775
-215.467943
-225.586603
-234.217225
-244.335885
-250.883254
-260.406699
-269.334928
-275.882297
-284.512919
-291.953110
-298.798086
-304.155024
-305.345455
-308.023923
-307.726316
-309.809569
-307.726316
-307.428708
-308.321531
-307.428708
-306.238278
-303.559809
-300.881340
-298.798086
-292.548325
-288.977033
-282.429665
-277.965550
-268.739713
-260.406699
-250.288038
-242.252632
-232.431579
-219.039234
-207.134928
-191.659330
-177.374163
-162.791388
-149.101435
-134.816268
-118.447847
-99.400957
-83.330144
-67.854545
-51.486124
-36.903349
-19.642105
-4.464115
9.353383
23.968045
38.582707
51.443609
64.889098
77.457707
91.487782
104.348684
116.332707
126.855263
140.300752
152.284774
164.268797
175.083647
188.529135
204.020677
217.173872
226.819549
236.757519
245.818609
255.756579
262.479323
270.663534
277.386278
286.447368
293.462406
300.769737
304.569549
306.323308
307.784774
309.538534
308.953947
308.661654
308.369361
310.123120
308.077068
306.615602
305.154135
303.108083
299.600564
295.800752
289.954887
284.985902
277.970865
270.663534
261.894737
253.125940
242.311090
232.080827
220.973684
208.405075
195.251880
179.760338
166.022556
151.700188
138.254699
123.347744
104.348684
88.564850
71.611842
56.412594
40.921053
26.306391
10.230263
-5.356938
-18.749282
-33.629665
-47.022010
-61.009569
-74.699522
-86.901435
-100.591388
-113.090909
-126.185646
-137.494737
-149.696651
-163.386603
-172.017225
-188.683254
-202.968421
-217.253589
-227.372249
-236.895694
-243.740670
-253.859330
-262.787560
-270.227751
-276.477512
-283.917703
-292.845933
-297.310048
-301.476555
-307.726316
-308.619139
-309.214354
-310.107177
-309.214354
-308.916746
-307.131100
-306.833493
-304.750239
-302.964593
-300.583732
-298.202871
-294.333971
-289.274641
-283.917703
-277.072727
-269.037321
-259.513876
-250.883254
-240.764593
-230.943541
-218.146411
-204.158852
-191.064115
-176.778947
-161.005742
-147.018182
-135.411483
-117.257416
-99.103349
-81.246890
-67.259330
-50.890909
-36.010526
-19.939713
-2.976077
10.230263
24.552632
39.751880
53.197368
66.935150
79.211466
91.487782
104.348684
115.455827
127.732143
140.885338
152.284774
164.853383
175.960526
188.821429
204.312970
216.881579
227.111842
237.342105
245.526316
256.633459
262.771617
270.371241
278.263158
285.862782
293.170113
299.892857
304.861842
308.077068
308.369361
310.123120
310.123120
310.123120
309.830827
308.953947
308.369361
307.200188
304.861842
302.523496
299.308271
294.339286
291.416353
284.693609
278.847744
270.371241
260.433271
253.125940
243.480263
232.665414
220.389098
207.820489
194.082707
180.052632
165.145677
151.115602
137.962406
121.886278
103.179511
87.103383
72.196429
56.997180
40.628759
24.844925
8.768797
-5.654545
-19.344498
-34.522488
-47.022010
-61.009569
-75.294737
-87.794258
-101.781818
-111.900478
-124.697608
-137.197129
-151.184689
-163.386603
-173.207656
-187.492823
-203.563636
-217.253589
-227.074641
-235.110048
-244.633493
-254.454545
-264.573206
-270.227751
-277.370335
-284.810526
-293.143541
-297.607656
-304.750239
-306.535885
-308.619139
-308.916746
-308.321531
-309.214354
-308.023923
-308.619139
-307.131100
-304.155024
-304.155024
-300.286124
-298.202871
-293.441148
-287.488995
-282.132057
-275.882297
-268.144498
-260.406699
-249.990431
-242.252632
-229.157895
-219.039234
-205.646890
-191.956938
-177.374163
-162.493780
-148.803828
-134.816268
-117.852632
-99.996172
-83.925359
-67.854545
-50.593301
-35.712919
-18.749282
-3.868900
9.645677
24.552632
38.582707
51.735902
65.473684
78.626880
90.026316
104.348684
115.163534
126.562970
139.716165
151.992481
165.730263
174.499060
188.529135
205.482143
218.050752
227.404135
236.757519
246.403195
255.171992
263.356203
271.832707
277.970865
287.031955
293.462406
299.892857
303.692669
306.615602
308.661654
308.953947
309.246241
309.538534
309.246241
309.830827
308.369361
306.907895
305.738722
302.523496
299.600564
294.923872
289.662594
283.816729
277.970865
269.202068
261.602444
253.125940
243.772556
232.373120
220.973684
207.528195
193.790414
179.760338
165.437970
150.238722
138.254699
120.424812
103.179511
87.395677
71.611842
57.581767
40.628759
24.552632
8.476504
-5.059330
-19.344498
-34.224880
-47.914833
-61.307177
-75.592344
-87.794258
-100.591388
-111.900478
-124.102392
-137.792344
-151.482297
-162.493780
-172.612440
-187.195215
-203.563636
-216.658373
-226.181818
-235.705263
-244.931100
-255.347368
-263.382775
-269.334928
-276.775120
-284.810526
-292.548325
-298.500478
-302.964593
-306.238278
-307.428708
-308.916746
-308.916746
-308.619139
-308.321531
-308.023923
-306.833493
-305.047847
-303.559809
-300.583732
-297.607656
-292.845933
-287.488995
-282.132057
-277.072727
-267.251675
-259.513876
-250.585646
-240.466986
-229.455502
-217.253589
-203.861244
-190.171292
-178.862201
-161.303349
-148.803828
-134.221053
-116.364593
-98.805742
-81.544498
-66.068900
-52.081340
-35.415311
-19.046890
-2.976077
11.691729
24.260338
38.582707
52.320489
67.812030
79.503759
91.487782
104.348684
114.578947
127.147556
140.008459
152.577068
165.145677
175.960526
189.406015
205.189850
217.758459
227.988722
236.465226
246.695489
255.464286
264.525376
271.832707
279.724624
285.862782
294.923872
299.892857
303.984962
306.323308
309.538534
308.953947
309.830827
310.123120
309.830827
309.538534
308.661654
306.031015
303.984962
302.815789
299.015977
296.677632
290.247180
284.401316
278.263158
269.786654
261.017857
253.710526
243.187970
231.788534
220.681391
207.528195
193.498120
179.760338
164.561090
152.577068
137.962406
119.255639
102.302632
85.057331
70.442669
55.535714
40.628759
24.260338
9.061090
-4.761722
-20.534928
-34.522488
-48.212440
-60.711962
-74.699522
-87.496651
-98.805742
-113.090909
-125.292823
-136.899522
-150.887081
-162.493780
-173.505263
-188.683254
-203.563636
-215.765550
-227.074641
-236.895694
-245.526316
-254.156938
-261.894737
-269.632536
-276.179904
-285.703349
-292.250718
-299.095694
-303.559809
-304.750239
-307.428708
-308.321531
-309.214354
-309.214354
-307.726316
-307.428708
-305.643062
-304.750239
-304.155024
-301.774163
-298.500478
-292.548325
-287.191388
-281.834450
-275.882297
-266.954067
-257.728230
-249.395215
-239.276555
-229.157895
-217.551196
-203.563636
-189.873684
-176.183732
-160.410526
-147.018182
-134.221053
-116.066986
-96.127273
-80.651675
-65.473684
-49.998086
-33.927273
-16.963636
-1.785646
11.107143
26.890977
40.336466
52.905075
66.935150
80.672932
93.241541
105.517857
116.332707
128.609023
142.346805
153.746241
166.607143
176.837406
192.036654
206.943609
218.343045
229.157895
237.049812
248.156955
256.633459
264.817669
273.878759
279.724624
287.908835
294.046992
300.477444
304.569549
307.784774
308.661654
309.246241
309.246241
310.123120
310.123120
309.538534
309.830827
306.907895
304.861842
302.523496
299.015977
295.216165
291.124060
284.109023
277.970865
269.494361
260.725564
252.541353
242.311090
231.496241
219.804511
206.651316
191.452068
179.175752
163.099624
149.654135
135.624060
117.794173
101.133459
84.180451
69.273496
54.366541
39.167293
22.506579
6.430451
-6.547368
-21.725359
-38.093780
-49.700478
-63.390431
-76.485167
-90.175120
-101.484211
-114.578947
-126.780861
-139.577990
-153.267943
-165.172249
-174.398086
-190.171292
-204.158852
-217.551196
-228.562679
-235.705263
-246.716746
-255.049761
-263.085167
-270.525359
-278.263158
-286.298565
-292.845933
-300.583732
-303.559809
-306.238278
-308.023923
-308.023923
-308.916746
-309.214354
-308.321531
-308.023923
-306.238278
-305.047847
-304.155024
-300.881340
-298.500478
-292.250718
-288.084211
-283.024880
-275.287081
-267.549282
-257.728230
-249.692823
-239.276555
-228.860287
-216.063158
-203.563636
-189.873684
-175.588517
-160.112919
-145.232536
-133.328230
-113.983732
-95.829665
-79.758852
-63.688038
-47.914833
-33.034450
-16.368421
-1.190431
12.860902
27.183271
42.090226
54.366541
68.688910
81.257519
94.118421
105.225564
118.086466
129.778195
142.639098
155.792293
167.191729
177.421992
192.328947
207.820489
218.927632
229.157895
238.511278
247.864662
258.094925
264.233083
272.125000
280.893797
285.862782
295.800752
300.769737
305.446429
307.492481
308.953947
309.830827
309.830827
310.415414
310.123120
309.538534
308.953947
307.492481
305.446429
302.231203
300.769737
295.508459
288.493421
284.109023
275.924812
269.786654
260.725564
251.372180
241.434211
230.034774
219.219925
206.943609
193.205827
177.421992
164.853383
149.654135
136.793233
120.424812
101.718045
86.518797
69.565789
54.074248
38.290414
23.091165
7.015038
-6.547368
-20.534928
-36.010526
-49.700478
-62.200000
-76.485167
-88.984689
-102.079426
-113.090909
-125.590431
-139.577990
-152.672727
-163.386603
-173.802871
-189.278469
-205.646890
-216.955981
-227.669856
-236.002871
-245.526316
-255.347368
-262.489952
-270.227751
-277.667943
-285.108134
-293.143541
-299.095694
-303.559809
-306.238278
-306.833493
-307.428708
-308.619139
-306.833493
-307.726316
-306.833493
-304.750239
-303.262201
-302.369378
-300.286124
-297.310048
-293.143541
-287.786603
-281.239234
-274.691866
-267.251675
-258.621053
-248.502392
-238.086124
-227.669856
-216.063158
-203.563636
-188.683254
-174.100478
-160.708134
-147.018182
-131.542584
-113.388517
-96.722488
-79.461244
-64.878469
-50.295694
-33.927273
-17.558852
-0.595215
13.445489
26.598684
42.090226
54.658835
67.519737
81.549812
93.241541
105.225564
116.040414
129.485902
142.054511
153.161654
167.191729
175.668233
191.744361
207.820489
219.804511
229.157895
238.803571
247.864662
256.633459
264.817669
271.540414
280.893797
289.078008
296.093045
301.354323
304.569549
307.784774
309.538534
310.123120
310.415414
309.246241
310.123120
308.661654
308.661654
307.200188
304.861842
302.231203
299.600564
294.339286
289.954887
283.524436
277.970865
269.494361
260.725564
251.372180
241.726504
230.619361
218.927632
205.482143
192.621241
178.006579
163.684211
149.361842
136.793233
117.794173
99.087406
83.303571
68.396617
54.366541
39.167293
22.506579
8.184211
-6.249761
-21.427751
-36.903349
-51.486124
-62.795215
-75.889952
-89.282297
-102.079426
-113.983732
-126.483254
-139.280383
-152.077512
-165.172249
-174.993301
-190.468900
-204.754067
-218.146411
-227.372249
-237.193301
-245.823923
-253.859330
-262.787560
-269.334928
-277.072727
-285.108134
-291.953110
-298.798086
-303.559809
-306.238278
-306.833493
-308.619139
-308.321531
-309.214354
-307.726316
-306.833493
-305.643062
-304.452632
-303.559809
-300.881340
-296.119617
-291.953110
-285.703349
-280.644019
-273.799043
-266.954067
-257.728230
-248.502392
-238.383732
-228.265072
-215.467943
-202.968421
-188.385646
-173.207656
-158.922488
-144.934928
-130.649761
-113.686124
-95.829665
-79.461244
-63.688038
-47.319617
-31.844019
-16.070813
-0.297608
13.737782
28.644737
42.674812
56.412594
68.981203
81.257519
95.579887
106.979323
118.671053
129.778195
143.223684
155.500000
166.899436
178.591165
192.328947
208.989662
220.096805
230.327068
239.095865
248.741541
258.094925
265.694549
273.586466
281.186090
288.201128
297.262218
301.354323
305.738722
307.492481
309.538534
310.415414
310.415414
310.415414
309.830827
309.246241
308.661654
305.446429
304.277256
302.815789
299.308271
294.339286
289.954887
283.524436
276.801692
269.202068
259.264098
250.495301
242.311090
230.327068
217.758459
205.482143
190.282895
177.129699
161.053571
147.900376
134.747180
117.209586
99.964286
82.718985
68.104323
53.197368
35.659774
20.752820
5.261278
-10.118660
-23.213397
-38.391388
-52.081340
-66.366507
-79.758852
-91.365550
-104.460287
-115.471770
-127.673684
-142.256459
-154.458373
-165.172249
-177.076555
-191.064115
-207.730144
-218.444019
-228.265072
-238.086124
-247.907177
-255.347368
-265.168421
-270.227751
-280.048804
-286.298565
-293.738756
-298.798086
-303.857416
-305.047847
-306.535885
-308.023923
-308.916746
-308.023923
-308.916746
-308.023923
-305.940670
-304.452632
-302.071770
-300.286124
-297.012440
-291.953110
-286.298565
-280.941627
-274.691866
-265.763636
-256.537799
-247.609569
-237.788517
-226.777033
-214.277512
-200.885167
-187.195215
-173.505263
-158.029665
-144.042105
-131.244976
-111.007656
-94.044019
-77.675598
-62.200000
-48.510048
-30.355981
-15.177990
0.584586
14.906955
28.352444
43.843985
56.412594
69.858083
82.718985
94.995301
108.148496
117.794173
131.239662
144.100564
156.084586
168.653195
178.883459
193.790414
208.989662
220.973684
230.911654
241.434211
249.033835
260.433271
266.863722
275.340226
281.770677
288.201128
297.262218
301.354323
307.492481
308.077068
309.246241
308.953947
311.000000
311.000000
310.415414
310.415414
308.077068
307.492481
303.692669
302.231203
299.015977
294.923872
289.662594
283.524436
276.509398
268.617481
259.556391
250.495301
240.265038
228.865602
216.881579
203.728383
190.867481
176.252820
162.515038
147.315789
134.162594
115.748120
98.502820
81.257519
66.642857
50.274436
35.367481
19.583647
4.968985
-9.821053
-24.403828
-39.284211
-52.676555
-66.068900
-77.973206
-91.365550
-102.674641
-115.769378
-129.161722
-139.875598
-154.160766
-166.362679
-176.778947
-192.552153
-207.432536
-219.039234
-228.860287
-238.681340
-247.014354
-258.323445
-263.977990
-270.227751
-279.751196
-287.191388
-294.036364
-299.690909
-304.155024
-306.535885
-307.131100
-307.428708
-308.321531
-308.321531
-308.023923
-307.428708
-305.940670
-304.452632
-301.774163
-300.583732
-296.714833
-291.357895
-286.893780
-279.453589
-272.906220
-265.763636
-256.537799
-248.204785
-238.086124
-226.479426
-213.979904
-200.885167
-188.683254
-172.612440
-159.220096
-143.744498
-130.649761
-113.090909
-94.936842
-78.270813
-64.283254
-46.724402
-30.653589
-15.475598
-0.000000
14.614662
28.644737
42.090226
55.243421
68.688910
82.426692
94.118421
107.271617
118.671053
130.947368
143.515977
156.669173
167.191729
177.714286
193.498120
208.112782
221.265977
229.742481
239.388158
250.203008
257.510338
265.109962
273.294173
282.062970
290.539474
296.385338
302.231203
306.031015
307.200188
308.369361
309.830827
310.123120
310.123120
309.246241
309.538534
307.784774
306.907895
304.569549
301.938910
299.015977
294.339286
289.662594
282.939850
