-267.412879
-243.852273
9.078154
-98.071023
-227.359848
-202.032197
-199.381629
-186.128788
-171.403409
-156.972538
-142.541667
-125.165720
-107.495265
-91.297348
-75.099432
-60.668561
-44.470644
-29.450758
-13.252841
9.370998
14.349341
30.748588
45.390772
54.468927
74.382298
86.388889
95.174200
105.130885
120.065913
137.343691
149.057439
157.257062
173.363465
188.591337
200.305085
216.997175
219.632768
234.274953
244.524482
254.481168
265.023540
267.951977
277.030132
283.765537
293.429379
294.893597
300.750471
301.336158
302.214689
302.214689
302.507533
301.629002
300.164783
304.850282
302.214689
300.164783
298.114878
291.086629
288.743879
280.837100
275.565913
269.123352
263.559322
248.917137
235.446328
226.075330
216.997175
198.840866
183.612994
168.385122
155.207156
139.393597
117.723164
104.838041
83.460452
67.939736
46.269303
32.212806
16.399247
-1.178030
-14.430871
-29.156250
-43.587121
-58.901515
-65.675189
-80.400568
-88.352273
-98.365530
-114.857955
-119.275568
-132.822917
-141.952652
-148.431818
-163.746212
-175.821023
-180.238636
-187.895833
-208.511364
-223.236742
-227.359848
-235.900568
-249.153409
-255.043561
-263.289773
-268.296402
-274.775568
-283.905303
-290.973485
-293.329545
-300.103220
-303.342803
-300.986742
-304.815341
-308.054924
-309.232955
-309.821970
-309.527462
-311.000000
-305.698864
-303.342803
-303.342803
-296.569129
-296.274621
-289.795455
-285.672348
-276.248106
-271.830492
-262.700758
-256.810606
-245.619318
-236.489583
-227.359848
-215.285038
-202.326705
-189.957386
-174.348485
-160.506629
-146.664773
-132.822917
-113.974432
-97.776515
-82.167614
-67.147727
-51.538826
-35.340909
-18.848485
-5.890152
8.492467
22.548964
36.019774
51.833333
64.425612
77.603578
89.317326
101.323917
113.916196
126.215631
139.686441
152.571563
165.163842
177.170433
191.519774
207.626177
219.925612
230.175141
239.253296
249.209981
258.288136
267.366290
274.980226
281.422787
288.451036
292.843691
301.336158
302.800377
306.021657
306.607345
306.900188
305.143126
306.021657
309.828625
306.900188
305.728814
304.557439
301.921846
297.529190
295.186441
291.672316
283.765537
277.030132
267.951977
257.409605
247.452919
237.789077
227.246704
215.532957
202.647834
187.712806
171.606403
154.328625
139.979284
125.337100
109.230697
88.438795
69.989642
57.104520
39.826742
25.184557
8.199623
-6.479167
-23.266098
-35.635417
-48.004735
-63.613636
-74.804924
-87.468750
-97.776515
-109.556818
-121.926136
-131.939394
-144.308712
-156.089015
-167.280303
-177.588068
-189.368371
-202.326705
-217.346591
-225.887311
-234.428030
-243.852273
-251.214962
-259.755682
-265.940341
-274.775568
-280.665720
-287.733902
-294.802083
-299.514205
-304.226326
-305.404356
-305.698864
-308.938447
-307.465909
-304.226326
-306.287879
-306.287879
-303.637311
-303.048295
-301.870265
-299.514205
-294.802083
-290.678977
-283.905303
-278.309659
-270.652462
-264.173295
-255.043561
-242.968750
-234.722538
-224.414773
-212.045455
-199.087121
-187.012311
-170.814394
-157.267045
-143.425189
-128.994318
-111.323864
-95.714962
-79.222538
-64.497159
-50.949811
-33.868371
-17.670455
-3.239583
10.249529
24.598870
38.362524
52.711864
66.182674
79.653484
93.417137
104.545198
115.966102
130.022599
142.614878
156.964218
166.920904
179.220339
194.448211
208.797552
220.804143
229.589454
239.546139
249.795669
259.752354
267.366290
274.394539
282.301318
288.451036
297.529190
301.043315
303.971751
306.314501
307.778719
308.364407
307.485876
307.193032
307.778719
306.607345
304.264595
303.386064
301.043315
298.407721
296.064972
289.622411
283.765537
278.201507
269.709040
262.095104
252.138418
240.131827
229.589454
216.411488
204.697740
190.641243
175.706215
161.064030
145.250471
130.608286
114.501883
94.588512
78.774953
61.204331
46.562147
30.748588
15.227872
-0.589015
-15.314394
-28.861742
-42.703598
-55.661932
-68.031250
-82.167614
-93.947917
-105.139205
-117.214015
-130.172348
-142.541667
-153.143939
-165.513258
-174.937500
-186.423295
-202.621212
-216.757576
-224.709280
-232.955492
-241.790720
-252.098485
-260.639205
-265.645833
-274.186553
-280.665720
-287.733902
-294.507576
-299.219697
-303.048295
-305.109848
-305.993371
-306.287879
-308.054924
-307.760417
-305.698864
-304.815341
-303.048295
-301.281250
-301.281250
-297.452652
-293.624053
-289.206439
-283.316288
-277.131629
-268.885417
-260.050189
-251.509470
-243.263258
-233.544508
-222.058712
-209.100379
-197.614583
-184.067235
-169.636364
-155.794508
-141.952652
-127.816288
-109.262311
-92.769886
-78.928030
-62.435606
-48.593750
-31.512311
-16.197917
-0.294508
12.592279
26.648776
40.705273
53.004708
67.354049
79.653484
94.002825
106.595104
117.723164
131.193974
144.371940
157.257062
168.385122
180.684557
197.083804
211.433145
222.268362
231.053672
240.131827
250.674200
259.752354
269.416196
275.273070
282.887006
291.086629
296.943503
301.043315
304.557439
306.607345
308.071563
307.778719
308.950094
308.950094
308.657250
308.364407
306.607345
304.557439
303.093220
299.871940
295.772128
291.379473
286.401130
280.251412
270.001883
261.509416
251.845574
241.888889
230.467985
219.339925
205.283427
190.641243
176.584746
160.771186
146.714689
132.658192
115.966102
97.224105
80.532015
65.304143
49.197740
34.555556
17.863465
2.342750
-12.663826
-27.094697
-40.936553
-53.600379
-68.325758
-80.106061
-93.358902
-104.550189
-116.919508
-128.110795
-140.185606
-152.554924
-166.691288
-174.642992
-187.012311
-202.032197
-215.285038
-226.181818
-233.250000
-242.379735
-251.509470
-258.577652
-267.118371
-272.714015
-281.843750
-288.028409
-294.802083
-299.219697
-300.986742
-302.753788
-304.226326
-306.582386
-305.993371
-306.582386
-305.698864
-304.815341
-303.931818
-302.164773
-299.219697
-296.569129
-293.624053
-288.322917
-281.843750
-275.364583
-267.412879
-257.988636
-250.331439
-242.085227
-231.482955
-220.586174
-207.922348
-194.964015
-182.300189
-166.985795
-154.027462
-141.363636
-125.165720
-107.495265
-90.119318
-74.510417
-59.785038
-44.765152
-29.156250
-12.958333
0.292844
15.520716
29.870056
42.462335
57.397363
69.989642
83.167608
96.052731
108.059322
120.065913
133.243879
146.714689
159.599812
169.849341
183.027307
198.548023
214.068738
224.903955
232.810734
242.181733
251.259887
261.216573
268.537665
276.151601
284.351224
290.793785
297.529190
301.921846
304.557439
306.607345
307.485876
308.657250
309.242938
309.242938
308.950094
307.193032
305.435970
304.557439
300.750471
299.871940
295.772128
291.086629
284.351224
277.030132
270.587571
260.630885
250.967043
241.303202
228.710923
218.168550
206.161959
191.226930
176.877589
161.064030
148.471751
133.243879
116.258945
98.395480
81.410546
66.182674
49.783427
35.141243
18.741996
2.928437
-12.074811
-25.327652
-39.169508
-54.189394
-65.086174
-78.633523
-92.180871
-104.255682
-116.625000
-127.521780
-139.596591
-152.849432
-164.629735
-174.642992
-186.717803
-202.915720
-215.579545
-226.181818
-233.250000
-241.201705
-251.509470
-260.050189
-267.707386
-273.597538
-280.076705
-288.028409
-294.802083
-300.103220
-302.164773
-304.815341
-305.993371
-305.698864
-305.993371
-305.698864
-305.404356
-304.520833
-303.342803
-301.575758
-298.925189
-295.980114
-291.857008
-286.261364
-282.727273
-273.008523
-268.296402
-259.166667
-249.153409
-240.612689
-229.421402
-218.819129
-207.038826
-193.491477
-180.238636
-166.985795
-151.965909
-138.418561
-122.515152
-105.139205
-87.174242
-73.626894
-58.901515
-43.292614
-27.683712
-11.780303
3.514124
16.984934
31.334275
45.097928
59.740113
72.332392
85.217514
97.516949
109.523540
121.237288
134.708098
147.007533
159.892655
170.435028
183.612994
200.890772
215.532957
224.025424
233.396422
243.353107
253.309793
262.387947
271.173258
278.787194
285.815443
292.550847
298.114878
302.507533
306.607345
305.435970
308.071563
308.950094
308.950094
309.242938
308.071563
307.485876
306.314501
303.093220
301.043315
298.993409
294.893597
290.500942
284.058380
278.494350
268.830508
261.216573
252.431262
240.424670
229.296610
217.875706
203.233522
191.812618
177.463277
161.356874
147.593220
132.658192
115.966102
98.395480
80.532015
66.182674
51.540490
34.848399
19.913371
4.099812
-11.191288
-25.327652
-38.580492
-52.716856
-66.264205
-78.928030
-92.475379
-103.961174
-115.152462
-127.521780
-140.774621
-152.849432
-164.924242
-175.821023
-188.190341
-204.388258
-214.990530
-224.120265
-233.544508
-242.968750
-252.687500
-260.050189
-268.296402
-275.070076
-282.432765
-290.678977
-295.980114
-300.103220
-302.164773
-304.815341
-305.109848
-306.876894
-305.993371
-304.815341
-305.109848
-304.815341
-302.459280
-300.692235
-298.630682
-294.802083
-291.857008
-285.966856
-280.076705
-274.775568
-264.467803
-257.105114
-248.858902
-240.318182
-228.832386
-217.052083
-205.566288
-193.785985
-178.471591
-165.218750
-150.198864
-135.473485
-118.981061
-101.899621
-85.701705
-70.681818
-55.661932
-41.231061
-24.738636
-9.129735
5.271186
19.913371
35.434087
46.854991
61.497175
74.089454
87.267420
99.859699
111.866290
123.287194
136.465160
149.643126
162.528249
172.777778
186.541431
201.183616
215.825800
226.661017
234.860640
244.524482
255.066855
262.973635
272.344633
278.787194
285.815443
294.015066
299.871940
303.678908
305.435970
307.193032
307.778719
308.071563
309.242938
308.364407
308.364407
307.485876
304.850282
303.386064
301.629002
298.407721
295.479284
289.622411
283.179849
277.030132
267.659134
260.045198
251.552731
239.838983
229.296610
216.118644
202.647834
189.762712
175.999058
159.014124
147.007533
131.779661
115.087571
98.102637
79.946328
65.304143
50.369115
35.141243
18.741996
3.514124
-12.369318
-26.505682
-39.169508
-52.127841
-66.264205
-80.106061
-93.358902
-103.666667
-115.446970
-128.699811
-139.891098
-153.732955
-164.629735
-174.348485
-189.073864
-204.093750
-215.285038
-224.414773
-235.017045
-242.968750
-252.687500
-261.817235
-267.707386
-274.481061
-280.960227
-291.267992
-297.452652
-299.808712
-303.048295
-304.226326
-303.637311
-303.637311
-303.637311
-303.637311
-305.109848
-303.637311
-301.575758
-300.692235
-299.219697
-294.213068
-290.973485
-285.672348
-281.254735
-272.125000
-264.762311
-256.221591
-246.797348
-238.256629
-227.654356
-217.935606
-204.093750
-190.546402
-175.821023
-161.979167
-148.431818
-132.822917
-116.919508
-99.249053
-83.345644
-68.914773
-53.600379
-39.169508
-22.677083
-6.773674
7.613936
22.256121
35.726930
49.490584
63.547081
76.432203
89.610169
101.616761
113.330508
124.751412
138.807910
151.985876
163.113936
173.363465
188.005650
204.697740
216.704331
226.661017
236.910546
245.695857
255.652542
265.609228
272.637476
279.080038
286.693974
293.722222
299.871940
303.678908
305.728814
307.193032
308.364407
310.414313
308.950094
309.242938
308.657250
308.364407
305.435970
304.557439
301.629002
299.579096
294.600753
287.572505
281.715631
276.737288
268.244821
259.752354
249.209981
239.253296
229.882298
217.582863
205.576271
190.055556
175.706215
158.721281
146.714689
131.486817
113.037665
97.224105
79.946328
64.718456
49.490584
34.262712
17.863465
2.342750
-11.780303
-26.211174
-40.936553
-53.305871
-67.442235
-80.106061
-92.475379
-105.728220
-116.330492
-128.994318
-141.658144
-153.438447
-165.807765
-175.526515
-189.957386
-205.860795
-217.641098
-225.298295
-235.017045
-244.735795
-254.749053
-261.817235
-269.179924
-277.426136
-284.788826
-289.795455
-297.158144
-301.281250
-303.931818
-303.637311
-305.404356
-305.109848
-305.404356
-305.993371
-305.109848
-303.637311
-302.459280
-300.692235
-298.041667
-295.391098
-292.151515
-283.316288
-278.898674
-271.535985
-264.173295
-254.749053
-245.619318
-235.900568
-226.476326
-215.874053
-202.032197
-189.073864
-173.759470
-159.623106
-146.959280
-130.466856
-115.446970
-98.660038
-80.989583
-66.264205
-50.949811
-35.340909
-19.142992
-3.534091
9.956685
24.306026
38.069680
50.661959
65.304143
78.482109
90.488701
103.373823
114.209040
127.679849
140.564972
152.864407
164.578154
175.413371
190.934087
206.454802
219.047081
229.003766
237.789077
246.574388
256.823917
265.609228
273.516008
280.837100
288.451036
294.600753
299.286252
306.021657
306.607345
307.193032
308.364407
308.364407
308.950094
309.242938
308.950094
307.485876
305.728814
304.557439
300.750471
298.407721
294.307910
287.865348
282.301318
276.737288
266.194915
259.166667
249.502825
238.374765
227.832392
216.118644
202.940678
188.298493
173.949153
157.842750
145.250471
129.729755
112.451977
95.467043
79.360640
62.961394
48.612053
32.505650
17.277778
0.878531
-12.369318
-27.389205
-40.053030
-54.778409
-68.914773
-80.989583
-94.536932
-106.317235
-117.508523
-130.172348
-141.952652
-155.205492
-167.574811
-177.588068
-191.724432
-206.449811
-218.230114
-227.654356
-235.311553
-244.441288
-253.865530
-262.406250
-270.946970
-276.542614
-284.199811
-290.384470
-296.274621
-300.397727
-302.753788
-303.931818
-305.698864
-306.287879
-305.404356
-306.287879
-305.698864
-304.520833
-300.986742
-299.808712
-296.569129
-293.624053
-289.500947
-283.905303
-278.015152
-269.474432
-264.173295
-252.982008
-246.208333
-235.017045
-224.414773
-211.750947
-199.676136
-187.012311
-173.170455
-158.445076
-144.603220
-128.994318
-111.912879
-94.242424
-79.517045
-63.319129
-48.299242
-33.868371
-17.081439
-2.061553
11.420904
26.355932
40.998117
52.419021
67.939736
79.653484
92.831450
104.838041
115.966102
129.144068
141.443503
154.328625
165.749529
177.756121
193.862524
207.626177
220.218456
229.882298
239.838983
247.745763
258.873823
267.073446
274.101695
282.008475
287.865348
296.064972
301.336158
304.850282
306.900188
307.193032
308.071563
309.242938
309.828625
309.242938
309.828625
307.193032
304.850282
302.507533
301.629002
298.114878
294.015066
288.743879
282.594162
274.687382
266.780603
257.995292
247.745763
238.667608
227.539548
214.361582
202.062147
187.419962
172.484934
156.671375
143.493409
129.144068
111.280603
93.417137
76.432203
61.790019
47.733522
31.041431
15.813559
-0.294508
-15.314394
-28.567235
-42.998106
-55.956439
-68.914773
-83.051136
-95.420455
-106.611742
-119.275568
-129.877841
-144.014205
-155.205492
-167.869318
-177.882576
-192.018939
-208.511364
-218.524621
-227.654356
-237.667614
-245.619318
-255.632576
-264.173295
-269.474432
-276.248106
-285.672348
-291.267992
-297.452652
-300.692235
-301.870265
-304.815341
-305.993371
-305.698864
-305.109848
-303.931818
-303.931818
-302.164773
-300.397727
-300.103220
-296.569129
-292.740530
-287.439394
-282.727273
-278.309659
-270.652462
-262.111742
-252.982008
-243.852273
-233.250000
-222.647727
-211.456439
-198.792614
-184.361742
-170.814394
-156.383523
-142.836174
-126.932765
-109.262311
-93.947917
-76.866477
-63.024621
-47.710227
-31.512311
-14.725379
1.171375
14.642185
28.698682
42.755179
56.225989
70.575330
80.824859
94.295669
106.887947
118.016008
131.779661
143.786252
156.085687
167.506591
178.927495
195.033898
209.968927
220.804143
231.053672
240.717514
248.917137
259.166667
267.073446
275.273070
282.594162
289.915254
296.943503
302.214689
304.557439
308.071563
308.657250
308.657250
308.950094
308.657250
308.364407
309.242938
307.193032
304.264595
304.850282
300.457627
298.407721
293.722222
287.865348
280.251412
274.394539
265.316384
256.823917
246.574388
236.324859
225.489642
212.897363
200.305085
186.541431
169.849341
155.500000
142.907721
127.679849
109.230697
91.074388
76.725047
60.618644
46.269303
30.748588
14.642185
-0.294508
-15.608902
-29.156250
-42.114583
-56.839962
-70.092803
-83.345644
-95.714962
-107.789773
-117.803030
-131.055871
-144.014205
-156.972538
-166.396780
-178.471591
-194.080492
-208.805871
-219.997159
-227.948864
-236.784091
-245.913826
-256.810606
-263.584280
-270.357955
-276.837121
-285.083333
-291.562500
-297.747159
-301.575758
-303.931818
-305.404356
-305.993371
-305.993371
-305.109848
-305.109848
-304.226326
-302.753788
-301.870265
-298.925189
-295.096591
-291.562500
-286.850379
-281.549242
-277.131629
-268.885417
-260.344697
-252.098485
-243.263258
-232.071970
-221.764205
-209.100379
-196.436553
-182.594697
-167.869318
-155.205492
-139.302083
-124.282197
-107.495265
-90.708333
-74.804924
-60.079545
-45.943182
-29.450758
-13.252841
1.757062
15.813559
30.455744
43.926554
57.397363
71.746704
81.996234
97.224105
108.059322
120.065913
133.243879
144.664783
157.549906
168.385122
180.098870
196.790960
210.554614
221.975518
231.639360
241.010358
250.674200
260.045198
269.123352
275.858757
283.765537
289.622411
296.650659
301.921846
306.314501
306.607345
307.485876
309.242938
309.535782
309.535782
309.242938
308.657250
307.193032
304.264595
303.093220
300.750471
296.650659
291.672316
286.108286
281.129944
272.930320
264.730697
255.945386
245.988701
236.032015
223.146893
210.847458
199.426554
184.198682
168.677966
155.500000
140.564972
125.629944
107.180791
90.195857
74.382298
59.447269
44.219397
29.284369
12.885122
-0.589015
-16.197917
-31.217803
-44.176136
-58.607008
-70.976326
-84.229167
-96.303977
-108.084280
-120.748106
-131.939394
-144.897727
-157.561553
-167.574811
-179.355114
-194.080492
-209.689394
-221.469697
-228.537879
-238.845644
-247.680871
-257.399621
-265.056818
-269.768939
-277.720644
-286.850379
-293.329545
-298.336174
-299.808712
-303.048295
-303.637311
-304.226326
-305.109848
-303.637311
-305.404356
-303.931818
-301.575758
-300.397727
-297.158144
-295.391098
-291.267992
-284.788826
-281.254735
-276.837121
-268.001894
-260.933712
-250.625947
-241.790720
-231.188447
-219.408144
-207.922348
-194.669508
-180.533144
-168.163826
-152.554924
-137.829545
-121.631629
-105.433712
-88.941288
-73.626894
-58.607008
-43.881629
-27.094697
-11.780303
3.221281
18.741996
32.505650
45.976460
59.154426
72.039548
84.631827
96.638418
109.230697
120.944444
135.000942
146.714689
159.306968
170.142185
182.441620
198.548023
214.654426
223.146893
233.103578
242.474576
251.845574
261.509416
268.537665
276.444444
282.887006
291.379473
298.993409
302.800377
306.021657
307.485876
308.364407
308.071563
310.121469
310.414313
309.828625
308.657250
306.021657
305.435970
302.800377
298.993409
296.650659
291.672316
286.693974
279.665725
271.173258
264.437853
254.188324
245.110169
235.739171
222.268362
211.433145
198.255179
182.734463
169.849341
154.621469
139.979284
125.337100
105.423729
88.145951
73.503766
58.861582
44.512241
26.941620
11.713748
-5.006629
-16.492424
-31.512311
-45.943182
-58.901515
-71.565341
-83.934659
-97.482008
-109.262311
-122.220644
-134.295455
-147.842803
-158.445076
-170.814394
-181.711174
-197.909091
-212.045455
-220.880682
-229.126894
-238.256629
-249.153409
-256.810606
-265.940341
-272.714015
-280.076705
-288.028409
-293.918561
-298.630682
-300.397727
-303.048295
-304.226326
-304.520833
-305.993371
-304.520833
-303.931818
-302.753788
-301.281250
-300.397727
-297.747159
-296.274621
-290.384470
-286.261364
-279.487689
-274.775568
-267.118371
-257.694129
-250.920455
-240.318182
-230.010417
-217.346591
-207.038826
-193.196970
-179.060606
-165.513258
-151.965909
-137.240530
-120.453598
-102.488636
-85.996212
-70.681818
-56.250947
-40.053030
-23.855114
-8.835227
5.856874
19.620527
34.262712
48.026365
62.082863
74.089454
86.974576
100.152542
110.109228
123.580038
134.708098
149.057439
160.771186
170.727872
183.905838
198.840866
213.775895
225.196798
233.396422
243.938795
253.016949
263.852166
271.758945
277.908663
285.522599
291.965160
298.114878
304.557439
305.728814
307.485876
308.657250
308.950094
309.242938
309.535782
309.828625
309.242938
307.485876
305.143126
302.214689
300.164783
295.479284
290.793785
286.108286
279.372881
271.758945
262.387947
254.188324
243.938795
233.396422
221.682674
209.090395
197.083804
181.563089
167.213748
153.157250
138.222222
122.408663
103.959510
86.974576
72.332392
57.690207
42.169492
25.770245
10.249529
-3.828598
-18.553977
-32.984848
-47.121212
-60.963068
-73.921402
-85.112689
-98.660038
-111.029356
-123.693182
-135.767992
-147.253788
-160.506629
-169.930871
-183.478220
-199.676136
-212.045455
-222.942235
-231.188447
-239.140152
-248.564394
-260.050189
-268.001894
-273.303030
-278.604167
-288.911932
-294.213068
-298.041667
-301.575758
-303.342803
-305.404356
-305.404356
-305.698864
-305.404356
-303.342803
-303.342803
-302.459280
-300.397727
-298.336174
-296.274621
-291.562500
-286.555871
-280.076705
-273.597538
-266.234848
-257.399621
-248.269886
-237.962121
-229.421402
-217.052083
-205.566288
-191.429924
-177.882576
-163.746212
-149.904356
-135.178977
-118.686553
-101.016098
-83.934659
-68.620265
-53.600379
-38.580492
-21.204545
-5.301136
7.613936
21.963277
35.726930
49.490584
63.254237
76.432203
88.731638
100.738230
112.451977
125.629944
137.636535
150.228814
162.528249
171.899247
186.834275
201.476460
216.411488
226.661017
234.860640
243.938795
254.774011
263.852166
272.930320
278.494350
284.936911
294.307910
300.750471
305.143126
306.607345
307.193032
310.121469
308.950094
308.657250
310.121469
309.828625
308.657250
306.314501
304.264595
301.921846
298.407721
295.772128
289.622411
285.522599
279.080038
270.880414
262.387947
252.138418
243.060264
233.103578
219.632768
207.626177
195.326742
180.684557
166.335217
151.107345
137.636535
119.773070
102.495292
84.631827
69.989642
55.347458
40.119586
22.548964
9.078154
-7.362689
-21.204545
-34.751894
-48.004735
-62.435606
-75.393939
-87.763258
-100.721591
-111.618371
-124.282197
-136.357008
-149.315341
-160.801136
-171.992424
-185.539773
-200.265152
-214.107008
-223.531250
-232.071970
-242.379735
-252.982008
-259.755682
-267.412879
-273.303030
-281.549242
-288.028409
-295.980114
-298.041667
-301.870265
-303.637311
-304.520833
-305.404356
-304.226326
-304.226326
-302.753788
-303.931818
-301.575758
-300.397727
-298.925189
-294.507576
-290.678977
-285.672348
-277.720644
-273.892045
-264.762311
-255.632576
-248.858902
-237.078598
-227.359848
-216.168561
-203.799242
-191.429924
-176.410038
-161.684659
-147.842803
-133.411932
-116.330492
-99.249053
-83.640152
-68.031250
-51.538826
-37.107955
-21.204545
-6.184659
9.370998
24.598870
38.362524
51.247646
65.596987
78.482109
90.781544
103.666667
114.501883
126.801318
139.979284
152.571563
163.992467
174.534840
187.712806
204.404896
217.875706
226.661017
236.910546
246.281544
257.702448
266.487759
272.930320
280.837100
288.158192
294.015066
300.750471
304.264595
307.778719
309.535782
309.828625
309.828625
309.828625
309.242938
308.950094
308.364407
306.607345
305.143126
302.507533
299.871940
296.064972
290.500942
284.644068
278.201507
269.709040
260.630885
252.138418
241.596045
231.346516
220.218456
206.747646
193.862524
179.220339
163.113936
149.057439
135.293785
117.723164
100.738230
84.631827
70.282486
54.761770
39.241055
22.841808
7.613936
-7.657197
-22.088068
-35.929924
-48.888258
-63.319129
-76.571970
-90.119318
-101.016098
-113.385417
-125.165720
-138.713068
-151.671402
-164.040720
-172.875947
-187.012311
-204.093750
-215.579545
-224.120265
-234.133523
-241.790720
-252.687500
-258.872159
-266.234848
-274.186553
-281.549242
-289.206439
-294.802083
-300.103220
-302.164773
-303.637311
-304.226326
-304.815341
-305.993371
-305.404356
-304.520833
-302.753788
-300.103220
-299.808712
-297.158144
-294.213068
-289.500947
-284.199811
-277.426136
-271.830492
-263.878788
-255.338068
-245.913826
-236.195076
-225.298295
-213.812500
-201.737689
-187.895833
-172.875947
-158.445076
-144.897727
-130.761364
-113.090909
-96.303977
-79.811553
-64.497159
-48.593750
-34.162879
-17.670455
-3.239583
10.249529
25.184557
40.119586
53.590395
65.596987
79.653484
91.367232
104.545198
116.551789
127.679849
140.857815
152.864407
165.456685
175.706215
191.226930
206.161959
217.875706
229.589454
237.789077
247.452919
257.116761
265.902072
273.516008
280.251412
286.986817
294.893597
300.457627
305.143126
307.193032
309.242938
310.121469
309.535782
309.535782
309.535782
308.950094
308.364407
306.607345
306.021657
303.678908
298.407721
295.479284
290.208098
283.472693
275.858757
269.123352
259.459510
250.967043
239.838983
230.467985
219.632768
205.576271
192.691149
177.170433
163.113936
149.057439
135.293785
116.551789
98.981168
81.703390
66.475518
51.833333
35.726930
20.499058
5.271186
-9.129735
-23.266098
-37.696970
-51.244318
-64.791667
-77.750000
-89.530303
-103.077652
-114.563447
-127.227273
-139.596591
-153.143939
-163.746212
-173.759470
-188.779356
-203.799242
-215.579545
-226.770833
-233.544508
-243.557765
-254.160038
-260.639205
-268.885417
-275.364583
-283.905303
-290.678977
-296.863636
-298.925189
-300.397727
-303.048295
-304.815341
-304.226326
-303.931818
-303.637311
-304.815341
-302.164773
-300.692235
-300.397727
-297.158144
-293.035038
-288.322917
-284.494318
-277.426136
-271.535985
-263.289773
-253.865530
-244.441288
-235.311553
-224.120265
-213.223485
-200.265152
-186.717803
-172.286932
-156.972538
-145.192235
-128.699811
-111.029356
-93.358902
-78.339015
-63.024621
-48.004735
-32.690341
-17.081439
-1.178030
13.763653
26.941620
41.876648
54.761770
67.354049
80.239171
93.417137
106.009416
117.723164
129.729755
142.029190
154.621469
166.335217
177.170433
192.105461
207.626177
220.218456
228.710923
239.253296
248.917137
258.873823
267.073446
273.808851
281.129944
287.572505
295.479284
301.043315
304.557439
307.193032
308.950094
309.535782
310.414313
309.535782
309.535782
308.950094
308.657250
304.850282
304.264595
300.750471
299.286252
294.600753
287.572505
283.472693
276.151601
267.366290
259.752354
249.502825
239.253296
229.003766
216.704331
203.526365
190.055556
174.827684
162.528249
148.178908
131.779661
114.209040
95.759887
80.239171
65.011299
51.247646
35.141243
19.034840
2.928437
-11.191288
-25.033144
-38.285985
-53.305871
-64.791667
-79.517045
-93.358902
-104.255682
-116.330492
-127.816288
-140.774621
-153.732955
-164.924242
-175.232008
-189.957386
-205.860795
-216.463068
-226.181818
-234.428030
-245.619318
-254.454545
-261.522727
-268.590909
-275.070076
-283.316288
-290.089962
-296.863636
-300.103220
-301.870265
-303.342803
-303.342803
-304.520833
-304.520833
-304.226326
-303.637311
-303.048295
-300.397727
-298.925189
-295.096591
-292.740530
-288.028409
-282.432765
-277.131629
-270.357955
-261.522727
-252.687500
-244.441288
-235.606061
-223.825758
-211.161932
-196.731061
-184.950758
-170.519886
-155.794508
-143.130682
-126.049242
-110.145833
-91.591856
-75.393939
-60.079545
-45.943182
-29.156250
-15.019886
0.878531
14.642185
28.698682
43.633710
55.933145
68.818267
81.996234
94.002825
105.423729
118.601695
130.315443
144.371940
155.792844
167.506591
178.048964
195.326742
210.554614
221.682674
229.589454
240.131827
249.502825
258.580979
268.537665
275.273070
282.301318
289.036723
296.064972
301.043315
306.314501
307.778719
309.535782
309.828625
309.828625
309.828625
308.657250
309.242938
308.950094
305.728814
303.386064
301.336158
297.822034
293.722222
288.158192
282.887006
276.151601
265.316384
258.288136
248.331450
238.374765
228.125235
216.411488
202.647834
189.762712
175.706215
160.185499
144.664783
130.022599
112.744821
96.345574
79.946328
64.718456
49.783427
33.969868
18.156309
1.757062
-12.663826
-27.094697
-39.464015
-54.483902
-67.442235
-79.222538
-92.475379
-105.433712
-116.919508
-128.994318
-143.425189
-155.500000
-166.102273
-177.882576
-192.313447
-207.922348
-217.641098
-227.065341
-236.195076
-246.208333
-254.749053
-262.111742
-269.768939
-275.364583
-284.788826
-290.384470
-298.630682
-300.692235
-301.281250
-303.048295
-304.520833
-304.520833
-305.993371
-303.048295
-303.048295
-302.459280
-300.397727
-298.925189
-296.274621
-292.151515
-288.028409
-281.254735
-275.364583
-268.296402
-261.522727
-250.920455
-242.674242
-231.482955
-220.880682
-209.689394
-197.614583
-183.772727
-169.636364
-154.321970
-140.480114
-125.754735
-106.611742
-89.235795
-75.393939
-58.901515
-44.176136
-28.567235
-11.780303
2.049906
15.227872
30.748588
43.926554
57.983051
70.575330
82.874765
96.931262
108.937853
120.651601
132.951036
146.421846
158.721281
168.677966
180.391714
196.498117
211.140301
222.561205
231.639360
241.596045
250.381356
260.338041
268.244821
276.737288
283.765537
288.743879
298.114878
302.507533
306.314501
307.485876
309.242938
310.121469
310.707156
310.414313
309.535782
308.071563
307.778719
305.728814
304.264595
300.750471
297.236347
293.136535
286.693974
282.008475
274.980226
267.073446
256.823917
248.917137
238.374765
225.489642
213.483051
200.890772
187.712806
172.192090
156.378531
144.371940
128.558380
110.402072
92.831450
76.725047
62.375706
47.733522
30.455744
14.349341
0.292844
-14.136364
-27.978220
-42.703598
-56.545455
-68.325758
-81.578598
-95.125947
-107.200758
-118.686553
-129.877841
-142.541667
-156.383523
-166.985795
-178.766098
-194.080492
-208.216856
-218.819129
-228.537879
-237.373106
-248.269886
-256.516098
-263.289773
-272.125000
-278.309659
-284.788826
-290.678977
-298.630682
-300.103220
-302.164773
-303.342803
-303.637311
-304.815341
-304.226326
-304.520833
-305.404356
-302.459280
-299.808712
-299.514205
-295.391098
-290.973485
-288.028409
-281.549242
-275.953598
-268.001894
-260.639205
-251.214962
-243.557765
-231.482955
-220.586174
-208.216856
-195.258523
-182.594697
-166.691288
-153.143939
-139.007576
-123.693182
-104.844697
-88.057765
-73.037879
-56.839962
-41.820076
-25.916667
-10.307765
4.099812
19.913371
32.212806
46.269303
60.911488
72.625235
85.803202
98.395480
109.230697
122.408663
133.829567
147.886064
158.721281
170.435028
183.320151
199.133710
212.311676
224.025424
232.517891
243.938795
251.552731
262.387947
269.123352
276.737288
284.058380
291.672316
299.286252
304.264595
306.314501
308.657250
310.414313
309.828625
310.414313
311.000000
309.242938
309.242938
307.193032
305.728814
304.850282
300.750471
297.236347
292.843691
287.572505
282.301318
273.223164
263.852166
256.823917
245.695857
236.032015
226.075330
212.018832
198.840866
184.784369
170.727872
155.792844
142.614878
126.215631
108.059322
92.538606
75.553672
60.032957
45.976460
28.991525
12.592279
-3.239583
-15.314394
-29.745265
-44.176136
-57.134470
-71.270833
-82.462121
-96.009470
-109.556818
-119.864583
-131.939394
-146.075758
-158.150568
-168.163826
-179.944129
-196.436553
-209.689394
-220.291667
-228.537879
-240.318182
-246.797348
-257.399621
-263.878788
-272.125000
-279.782197
-285.083333
-292.740530
-298.041667
-300.986742
-303.048295
-303.637311
-304.520833
-304.226326
-303.637311
-303.637311
-303.637311
-302.753788
-300.397727
-298.630682
-294.802083
-291.857008
-285.377841
-280.076705
-274.775568
-267.118371
-258.872159
-250.625947
-240.612689
-230.304924
-220.291667
-207.333333
-193.196970
-181.122159
-165.807765
-151.082386
-136.946023
-120.748106
-102.488636
-86.290720
-70.976326
-54.778409
-40.053030
-24.149621
-8.540720
5.856874
19.913371
33.969868
47.147834
62.375706
74.675141
87.853107
100.152542
111.866290
124.458569
135.000942
148.764595
161.064030
171.313559
183.612994
199.426554
214.947269
225.196798
234.274953
244.231638
253.016949
262.095104
270.880414
278.787194
286.108286
292.258004
298.407721
304.850282
307.778719
307.778719
310.121469
311.000000
309.828625
310.707156
310.414313
310.121469
307.485876
305.143126
303.678908
300.164783
296.943503
292.550847
285.522599
279.958569
274.101695
262.973635
254.774011
245.403013
234.860640
223.146893
210.261770
197.083804
183.027307
167.506591
155.207156
142.029190
124.458569
106.009416
88.145951
73.503766
58.568738
44.219397
28.112994
11.713748
-3.239583
-17.964962
-31.217803
-45.354167
-58.017992
-72.743371
-84.229167
-96.009470
-109.851326
-121.337121
-133.706439
-146.075758
-158.445076
-169.930871
-180.827652
-198.792614
-212.339962
-221.764205
-230.893939
-239.434659
-249.742424
-258.577652
-265.351326
-273.303030
-280.076705
-285.966856
-293.329545
-298.925189
-302.753788
-303.342803
-303.048295
-305.109848
-304.815341
-305.698864
-303.342803
-303.637311
-302.753788
-298.336174
-297.452652
-294.507576
-291.562500
-285.672348
-280.076705
-272.714015
-265.645833
-258.577652
-248.858902
-239.140152
-229.126894
-217.935606
-206.744318
-192.018939
-177.882576
-163.157197
-149.609848
-135.178977
-118.097538
-101.016098
-83.934659
-70.092803
-54.189394
-39.169508
-23.855114
-7.068182
6.442561
21.377589
36.898305
49.783427
62.082863
75.553672
89.317326
100.738230
113.037665
125.044256
138.222222
149.935970
161.649718
172.192090
185.662900
200.890772
215.532957
226.661017
236.032015
243.938795
254.481168
263.559322
272.637476
279.958569
285.815443
293.722222
299.286252
304.850282
306.900188
308.657250
309.828625
310.414313
310.121469
310.414313
310.414313
309.828625
306.314501
304.850282
303.386064
301.336158
298.114878
291.379473
286.108286
280.544256
270.880414
263.559322
253.895480
243.353107
233.982109
222.854049
210.261770
195.912429
182.441620
167.506591
152.278719
139.686441
122.701507
103.080979
86.974576
72.332392
57.397363
42.169492
26.063089
10.249529
-4.417614
-17.964962
-32.395833
-45.943182
-60.374053
-73.037879
-86.585227
-98.365530
-108.967803
-123.398674
-135.473485
-149.315341
-159.328598
-170.225379
-184.656250
-199.087121
-212.045455
-223.531250
-230.304924
-240.318182
-251.214962
-258.872159
-268.001894
-273.892045
-281.843750
-286.850379
-295.685606
-298.336174
-302.164773
-303.637311
-304.520833
-304.520833
-303.931818
-303.931818
-305.404356
-303.931818
-301.870265
-299.808712
-298.925189
-295.096591
-291.562500
-284.199811
-280.371212
-272.125000
-264.173295
-255.927083
-246.208333
-237.078598
