129.948357
136.372770
144.257277
151.849765
164.114554
198.572770
207.333333
222.518310
223.686385
238.871362
247.047887
256.684507
259.896714
270.117371
275.957746
280.338028
289.974648
293.770892
294.062911
294.354930
294.646948
292.602817
291.726761
289.682629
287.346479
283.842254
278.293897
273.621596
266.905164
258.436620
241.207512
230.402817
214.925822
202.076995
183.679812
169.078873
147.469484
132.576526
110.383099
91.693897
71.544601
58.111737
41.758685
24.821596
5.548357
-3.557674
-21.938990
-38.837941
-54.254528
-63.445186
-70.857007
-80.640610
-91.906578
-105.247855
-112.659676
-116.513823
-127.483317
-130.448046
-139.638704
-144.085796
-155.648236
-161.874166
-161.577693
-171.657769
-179.069590
-182.923737
-190.928503
-198.933270
-213.756911
-224.133460
-232.138227
-242.811249
-244.886559
-257.041945
-261.489037
-275.126787
-274.830315
-285.206864
-287.875119
-292.915157
-301.512869
-306.849380
-309.517636
-307.145853
-311.000000
-305.959962
-305.959962
-309.814109
-310.407054
-305.367016
-308.331745
-305.663489
-300.030505
-299.437560
-295.286940
-289.950429
-283.131554
-277.498570
-269.197331
-261.489037
-251.408961
-242.514776
-232.434700
-219.686368
-208.716873
-196.265014
-181.441373
-168.100095
-152.387035
-139.342231
-123.629171
-105.544328
-90.720686
-73.525262
-59.294566
-42.988561
-27.571973
-12.155386
2.628169
16.353052
32.706103
44.386854
60.155869
73.296714
85.853521
97.826291
108.923005
120.895775
134.328638
149.513615
160.318310
171.123005
186.307981
200.324883
213.757746
224.562441
234.491080
245.587793
255.516432
263.108920
268.073239
276.249765
284.718310
289.390610
297.859155
300.779343
303.991549
304.283568
304.575587
309.247887
307.203756
306.911737
305.743662
305.159624
301.655399
301.947418
297.567136
294.646948
288.514554
279.753991
278.001878
268.949296
259.312676
247.923944
236.535211
228.358685
214.633803
199.740845
183.387793
171.999061
153.017840
136.956808
120.019718
104.834742
85.853521
65.996244
46.138967
32.998122
16.061033
1.460094
-13.934223
-29.350810
-42.988561
-54.551001
-66.409914
-77.675882
-90.127741
-101.097235
-112.363203
-123.036225
-132.226883
-142.899905
-155.648236
-167.507150
-177.883699
-186.184938
-199.822688
-213.460439
-225.022879
-235.102955
-241.921830
-251.408961
-258.820782
-266.529075
-273.347950
-278.684461
-285.799809
-294.693994
-299.141087
-301.216397
-305.959962
-305.367016
-307.738799
-309.517636
-306.552908
-308.035272
-307.738799
-306.256435
-306.256435
-304.181125
-301.809342
-299.141087
-294.101049
-287.282173
-282.538608
-275.423260
-268.307912
-259.710200
-249.630124
-240.735939
-230.359390
-219.389895
-206.048618
-193.300286
-178.476644
-163.949476
-149.718780
-136.377502
-118.292660
-101.393708
-85.087703
-71.746425
-55.143947
-39.134414
-24.310772
-8.004766
7.300469
20.441315
35.626291
47.307042
61.907981
75.924883
88.189671
100.162441
112.719249
124.984038
137.832864
150.973709
162.946479
175.211268
189.228169
205.581221
217.261972
228.066667
235.659155
246.755869
256.976526
264.569014
273.037559
278.293897
286.178404
292.602817
299.611268
303.991549
303.991549
306.035681
308.079812
307.495775
306.911737
307.203756
307.495775
305.451643
304.867606
302.239437
300.487324
296.983099
291.726761
287.346479
279.753991
272.745540
262.232864
251.428169
242.375587
231.278873
221.642254
208.209390
193.900469
178.423474
162.362441
146.885446
132.576526
117.391549
98.702347
79.429108
62.492019
47.015023
32.706103
14.892958
-0.000000
-15.416587
-29.647283
-42.395615
-56.033365
-68.188751
-80.937083
-93.092469
-104.951382
-115.327931
-127.483317
-139.045758
-151.794090
-163.653003
-176.104862
-184.702574
-198.933270
-213.163966
-225.319352
-232.731173
-240.142993
-249.037178
-257.634890
-267.122021
-273.644423
-279.870353
-285.206864
-294.101049
-300.326978
-302.105815
-305.367016
-306.552908
-308.035272
-307.442326
-306.552908
-306.256435
-307.442326
-307.145853
-305.070543
-303.291706
-300.623451
-298.251668
-292.618684
-287.875119
-282.835081
-276.609152
-266.825548
-257.041945
-248.740705
-239.550048
-228.877026
-216.128694
-204.566254
-191.521449
-175.511916
-161.577693
-148.829361
-134.895138
-116.513823
-99.911344
-84.198284
-68.781697
-53.661582
-38.244995
-22.235462
-7.708294
6.716432
22.485446
34.750235
50.811268
63.076056
76.216901
89.941784
103.082629
114.471362
125.860094
139.292958
152.433803
164.406573
176.087324
190.104225
205.581221
217.553991
227.190610
236.827230
246.755869
256.976526
266.321127
273.621596
280.630047
285.302347
295.523005
299.027230
301.947418
305.451643
304.867606
308.371831
307.787793
306.911737
306.619718
307.495775
306.035681
302.823474
302.239437
300.195305
296.399061
291.434742
286.178404
280.046009
273.037559
262.524883
254.348357
244.711737
233.323005
221.350235
208.501408
196.236620
179.883568
164.698592
148.929577
134.328638
121.187793
101.330516
83.517371
67.164319
51.395305
37.962441
20.733333
4.964319
-10.376549
-24.014299
-39.430887
-50.993327
-64.927550
-77.379409
-91.313632
-102.283127
-113.845567
-124.222116
-137.266921
-149.718780
-163.060057
-173.436606
-184.109628
-198.340324
-213.756911
-223.540515
-231.248808
-239.550048
-249.630124
-258.820782
-265.936130
-272.755005
-279.870353
-286.096282
-294.101049
-298.844614
-303.884652
-305.959962
-306.256435
-307.145853
-310.110582
-308.035272
-308.331745
-307.738799
-305.959962
-304.774071
-303.884652
-300.919924
-298.251668
-292.618684
-286.985701
-279.573880
-272.458532
-265.046711
-254.966635
-247.258341
-237.178265
-225.912297
-214.646330
-201.601525
-188.556721
-174.622498
-159.798856
-145.864633
-130.448046
-113.252622
-97.836034
-81.826501
-65.224023
-51.882745
-34.390848
-17.788370
-2.075310
11.680751
25.405634
38.838498
52.563380
65.996244
79.137089
91.693897
104.542723
115.639437
129.072300
141.921127
153.309859
165.866667
177.839437
193.900469
208.793427
220.182160
228.942723
238.287324
247.339906
259.020657
266.613146
273.621596
281.798122
289.098592
295.815023
299.319249
304.575587
305.743662
306.619718
307.787793
308.371831
307.495775
308.079812
307.787793
306.327700
303.115493
301.947418
301.363380
298.151174
292.310798
287.638498
280.922066
273.037559
263.400939
256.684507
245.003756
235.367136
223.394366
210.837559
196.820657
182.219718
167.618779
152.141784
137.248826
121.771831
103.082629
86.729577
69.500469
54.023474
40.590610
23.361502
7.592488
-8.004766
-21.049571
-34.390848
-48.325071
-61.369876
-74.711153
-88.941849
-100.800763
-113.252622
-123.629171
-136.081030
-148.829361
-162.170639
-171.657769
-182.923737
-196.561487
-213.163966
-223.244042
-230.062917
-238.957102
-249.037178
-257.931363
-266.232602
-271.272641
-279.573880
-286.096282
-296.176358
-300.326978
-304.181125
-305.367016
-305.663489
-308.035272
-305.663489
-306.849380
-307.145853
-306.849380
-307.442326
-305.367016
-300.919924
-298.548141
-294.990467
-291.136320
-284.613918
-280.759771
-271.569113
-263.860820
-254.373689
-245.775977
-235.695901
-223.244042
-213.460439
-200.415634
-186.184938
-173.140133
-156.834128
-146.457579
-130.151573
-111.473785
-93.981888
-79.454719
-65.816969
-49.510963
-33.204957
-18.084843
-2.964728
12.264789
26.281690
40.298592
52.855399
67.456338
79.137089
92.861972
105.126761
115.931455
130.240376
142.213146
155.646009
166.158685
178.423474
194.484507
209.377465
220.182160
228.942723
238.287324
248.800000
258.144601
266.905164
274.789671
281.214085
288.222535
296.983099
301.947418
303.991549
306.035681
306.035681
307.787793
309.247887
308.079812
307.495775
307.203756
306.619718
304.575587
302.239437
299.611268
295.523005
292.310798
285.886385
280.046009
271.869484
263.692958
255.224413
245.587793
233.907042
221.934272
209.961502
195.360563
183.387793
168.202817
152.141784
140.461033
122.355869
104.250704
87.021596
72.128638
56.651643
42.050704
25.113615
8.176526
-6.818875
-19.270734
-34.094376
-47.435653
-60.480458
-74.414681
-88.052431
-99.911344
-110.287893
-122.739752
-135.191611
-147.939943
-161.577693
-171.064824
-182.627264
-198.043851
-211.088656
-222.947569
-230.062917
-238.067684
-249.037178
-258.820782
-267.418494
-273.051478
-279.573880
-286.985701
-294.693994
-300.030505
-302.105815
-305.663489
-305.959962
-305.959962
-307.145853
-306.552908
-305.959962
-305.959962
-303.884652
-302.698761
-301.809342
-298.251668
-295.286940
-291.136320
-284.020972
-276.905624
-270.679695
-261.785510
-253.187798
-246.072450
-234.510010
-223.540515
-210.792183
-198.043851
-185.295520
-170.768351
-156.241182
-142.899905
-127.483317
-109.991420
-92.203051
-76.786463
-61.073403
-45.953289
-29.943756
-13.044805
1.168075
14.600939
28.617840
42.342723
57.235681
69.500469
81.765258
96.074178
106.878873
118.559624
131.992488
144.549296
157.398122
168.786854
181.927700
196.236620
211.421596
222.810329
230.694836
239.747418
250.552113
259.020657
268.657277
275.957746
283.550235
289.098592
296.399061
300.487324
306.327700
305.743662
307.203756
308.663850
307.495775
308.079812
307.495775
306.911737
305.451643
304.283568
301.655399
299.027230
296.691080
292.310798
286.470423
278.585915
273.329577
262.232864
254.056338
243.543662
234.199061
223.102347
210.545540
196.820657
182.219718
167.326761
150.681690
138.416901
121.771831
103.666667
85.561502
69.792488
54.899531
39.422535
22.193427
7.008451
-7.115348
-20.160153
-34.687321
-47.732126
-62.555767
-75.600572
-89.831268
-101.690181
-111.770257
-124.815062
-136.970448
-150.015253
-162.763584
-172.250715
-184.999047
-199.526215
-214.942803
-224.133460
-232.138227
-240.142993
-251.112488
-257.931363
-267.418494
-274.237369
-281.945663
-288.468065
-293.804576
-300.919924
-303.588179
-306.849380
-305.959962
-307.442326
-308.035272
-307.738799
-307.145853
-307.145853
-305.959962
-302.105815
-300.030505
-298.548141
-294.990467
-290.839847
-284.910391
-277.498570
-269.790276
-262.971401
-252.298379
-244.293613
-233.027645
-222.947569
-210.495710
-197.154433
-184.406101
-169.285987
-153.572927
-140.231649
-123.036225
-105.840801
-89.831268
-74.711153
-58.108675
-43.877979
-26.682555
-11.562440
3.504225
17.229108
31.538028
44.678873
57.819718
72.128638
85.269484
96.950235
109.215023
120.311737
133.744601
147.469484
160.026291
169.954930
183.971831
198.572770
212.005634
223.686385
233.030986
242.083568
251.136150
261.648826
269.825352
275.665728
282.966197
291.434742
298.443192
302.239437
305.451643
305.451643
306.911737
308.955869
308.371831
308.663850
308.371831
308.079812
306.327700
306.619718
303.115493
300.487324
297.567136
291.434742
286.762441
279.169953
271.869484
262.232864
254.348357
243.835681
233.030986
221.934272
210.253521
195.652582
181.343662
167.034742
151.265728
138.708920
121.479812
102.790610
85.561502
71.252582
55.191549
40.006573
23.069484
7.592488
-6.818875
-21.642517
-35.873213
-48.621544
-62.555767
-76.786463
-89.238322
-100.800763
-112.956149
-123.629171
-137.563394
-148.829361
-162.170639
-172.843661
-185.591992
-201.008580
-213.460439
-224.133460
-232.731173
-241.328885
-251.408961
-260.896092
-268.900858
-275.719733
-281.649190
-288.171592
-294.990467
-300.030505
-302.105815
-305.070543
-306.552908
-308.331745
-305.959962
-304.774071
-306.552908
-305.070543
-304.477598
-302.402288
-300.919924
-298.844614
-292.618684
-288.171592
-281.945663
-275.719733
-269.493804
-259.413727
-252.594852
-243.107722
-230.952336
-221.465205
-209.309819
-196.265014
-182.330791
-167.210677
-152.683508
-138.749285
-122.443279
-105.544328
-88.941849
-72.932316
-58.108675
-40.913251
-26.386082
-10.376549
4.088263
18.981221
31.538028
46.430986
60.155869
72.128638
86.437559
99.578404
109.215023
122.647887
135.204695
146.301408
159.734272
170.830986
183.971831
200.616901
213.757746
224.562441
232.446948
243.251643
252.596244
261.356808
269.241315
276.833803
284.426291
291.142723
297.275117
302.823474
304.575587
305.743662
307.495775
307.203756
307.203756
308.079812
308.955869
307.203756
306.035681
303.115493
301.363380
298.735211
295.523005
289.682629
283.842254
278.293897
270.993427
261.648826
252.012207
244.127700
232.154930
220.766197
207.333333
194.484507
179.007512
164.990610
151.849765
137.248826
119.727700
102.206573
84.977465
70.376526
54.315493
40.006573
22.777465
6.424413
-8.301239
-22.531935
-37.059104
-48.621544
-63.148713
-76.193518
-89.238322
-101.986654
-113.845567
-125.111535
-139.045758
-150.608198
-163.060057
-173.140133
-186.777884
-202.490944
-213.460439
-225.615825
-233.620591
-243.107722
-252.001907
-260.599619
-269.493804
-274.533842
-283.428027
-289.950429
-294.397521
-302.402288
-303.291706
-305.959962
-305.959962
-307.738799
-307.442326
-307.442326
-307.442326
-305.959962
-304.181125
-302.698761
-300.326978
-296.472831
-291.729266
-287.578646
-282.242135
-276.312679
-266.825548
-259.710200
-250.519542
-240.735939
-230.359390
-218.204004
-208.123928
-194.782650
-180.255481
-166.321258
-151.794090
-138.749285
-121.257388
-103.469018
-85.680648
-70.857007
-54.551001
-40.023832
-24.310772
-7.708294
6.716432
20.733333
33.874178
47.599061
61.615962
75.340845
87.605634
99.578404
110.967136
123.231925
136.080751
147.761502
160.610329
171.707042
185.431925
203.245070
214.633803
225.146479
235.075117
243.543662
254.056338
264.569014
272.453521
277.125822
285.302347
292.894836
298.151174
303.115493
304.575587
307.495775
307.787793
307.495775
308.663850
307.787793
308.955869
307.495775
306.327700
303.699531
301.947418
300.487324
296.691080
289.974648
283.842254
276.249765
269.825352
259.312676
252.012207
240.623474
231.278873
220.182160
207.625352
193.608451
178.423474
164.698592
149.221596
134.620657
118.559624
100.162441
82.641315
68.332394
53.439437
37.378404
21.317371
4.964319
-10.080076
-22.828408
-36.762631
-50.696854
-64.631077
-78.861773
-91.610105
-103.172545
-114.734986
-125.111535
-139.342231
-152.090562
-165.135367
-174.918970
-187.370829
-202.787417
-214.942803
-225.022879
-236.288847
-243.997140
-252.891325
-262.971401
-269.790276
-276.609152
-284.020972
-292.618684
-296.769304
-301.512869
-305.959962
-307.145853
-308.035272
-307.738799
-306.849380
-306.552908
-306.849380
-305.367016
-304.477598
-302.105815
-300.030505
-295.879886
-294.101049
-287.578646
-281.649190
-275.423260
-267.122021
-257.338418
-249.333651
-239.253575
-228.580553
-217.314585
-204.862726
-191.817922
-177.587226
-164.838894
-148.829361
-133.709247
-118.292660
-99.318398
-84.198284
-68.188751
-52.475691
-37.948522
-21.049571
-5.632984
9.052582
22.193427
37.086385
50.519249
63.076056
76.216901
91.109859
102.206573
113.011268
125.568075
138.124883
151.557746
163.238498
174.627230
188.352113
203.537089
216.969953
226.898592
234.783099
245.003756
255.516432
262.816901
271.577465
277.709859
285.594366
292.310798
299.611268
303.115493
307.787793
308.079812
308.663850
309.247887
308.663850
307.787793
308.079812
307.495775
305.451643
304.867606
302.239437
299.027230
294.646948
289.974648
285.010329
278.001878
268.949296
260.480751
252.304225
241.791549
230.402817
220.182160
208.209390
193.900469
178.715493
163.238498
148.637559
135.204695
117.683568
99.286385
82.349296
66.872300
52.855399
37.086385
20.441315
4.964319
-10.673022
-23.124881
-36.762631
-49.510963
-64.927550
-77.972355
-91.313632
-102.283127
-113.845567
-125.704480
-139.935176
-152.683508
-164.542421
-174.029552
-187.963775
-203.380362
-215.239276
-225.319352
-234.806482
-243.404194
-253.187798
-262.971401
-270.086749
-277.498570
-283.724500
-290.543375
-295.286940
-301.809342
-304.774071
-305.959962
-307.442326
-306.849380
-306.849380
-307.442326
-305.663489
-305.663489
-304.477598
-302.995234
-300.030505
-296.769304
-292.025739
-286.392755
-281.056244
-275.126787
-266.232602
-256.152526
-247.851287
-237.178265
-226.801716
-216.128694
-203.676835
-191.817922
-176.697807
-161.577693
-148.236416
-132.819828
-117.106768
-97.243089
-81.826501
-67.595806
-50.993327
-34.983794
-18.084843
-2.668255
10.804695
26.573709
37.670423
51.395305
65.704225
79.137089
91.985915
103.374648
115.055399
127.320188
140.169014
152.433803
165.282629
175.211268
189.812207
205.873239
217.846009
228.066667
236.827230
246.755869
256.392488
264.569014
273.037559
279.753991
285.886385
294.354930
299.903286
304.283568
306.327700
308.079812
308.371831
309.247887
308.955869
308.079812
308.079812
306.911737
306.035681
303.699531
302.239437
298.151174
294.646948
289.390610
283.258216
277.125822
267.489202
260.188732
249.092019
240.623474
228.650704
217.261972
204.413146
190.980282
176.379343
161.194366
147.469484
133.452582
115.055399
98.410329
81.765258
66.580282
51.103286
35.626291
19.273239
3.796244
-10.673022
-25.200191
-38.541468
-51.882745
-66.706387
-79.751192
-92.795996
-105.247855
-115.920877
-129.558627
-141.417541
-153.572927
-165.728313
-176.401335
-190.039085
-206.641563
-217.907531
-227.098189
-235.102955
-245.479504
-254.966635
-263.860820
-269.197331
-276.609152
-284.613918
-291.729266
-297.065777
-303.291706
-304.181125
-305.959962
-306.256435
-305.959962
-308.035272
-305.959962
-305.663489
-304.774071
-304.181125
-301.809342
-298.844614
-296.769304
-291.136320
-286.392755
-281.056244
-274.237369
-266.529075
-255.856053
-248.444233
-237.771211
-225.615825
-215.535748
-202.787417
-187.667302
-174.326025
-160.391802
-146.161106
-130.151573
-113.549094
-93.685415
-79.751192
-64.334604
-49.510963
-33.501430
-17.491897
-2.075310
12.848826
27.157746
41.466667
54.315493
67.748357
80.889202
92.569953
105.418779
116.807512
130.240376
141.337089
154.185915
164.990610
176.963380
191.272300
206.165258
219.598122
228.650704
237.703286
246.463850
257.852582
265.737089
271.869484
279.753991
287.930516
295.523005
301.655399
303.115493
305.451643
306.911737
307.787793
309.247887
309.247887
309.539906
308.371831
306.911737
306.035681
303.991549
301.655399
298.443192
294.646948
288.806573
284.426291
275.665728
266.613146
258.728638
248.507981
240.039437
228.358685
216.385915
204.705164
189.228169
174.919249
160.610329
147.469484
132.868545
114.179343
96.366197
81.181221
66.288263
51.103286
35.918310
18.689202
2.336150
-11.858913
-26.682555
-39.430887
-53.068637
-65.816969
-79.751192
-93.981888
-103.469018
-116.513823
-128.965682
-142.603432
-155.055291
-166.914204
-176.697807
-191.521449
-207.234509
-218.204004
-227.394662
-237.178265
-244.886559
-256.448999
-263.564347
-271.865586
-278.980934
-284.020972
-292.618684
-296.472831
-301.216397
-304.181125
-306.849380
-307.145853
-307.738799
-305.367016
-305.367016
-305.070543
-305.070543
-302.995234
-300.919924
-297.955195
-295.583413
-290.543375
-285.206864
-279.573880
-272.162059
-263.267874
-254.966635
-246.072450
-235.992374
-225.912297
-212.867493
-201.008580
-187.667302
-172.547188
-156.537655
-143.492850
-128.076263
-110.287893
-93.092469
-76.786463
-61.962822
-46.842707
-29.943756
-15.120114
-0.000000
15.184977
28.909859
42.634742
54.899531
69.792488
83.225352
95.198122
107.462911
119.143662
131.116432
143.673239
155.938028
168.202817
178.423474
192.732394
208.501408
219.890141
228.942723
237.995305
247.047887
258.144601
267.781221
274.789671
281.506103
288.806573
294.354930
301.071362
303.991549
306.619718
308.371831
309.247887
309.831925
309.831925
309.247887
308.663850
308.371831
306.327700
302.823474
301.363380
299.611268
294.354930
288.806573
281.506103
275.081690
267.197183
257.560563
248.800000
237.703286
228.066667
215.801878
201.784977
189.228169
174.043192
160.318310
145.717371
130.240376
113.595305
95.490141
80.013146
64.828169
49.935211
33.582160
16.937089
2.336150
-11.562440
-25.496663
-40.023832
-54.551001
-68.188751
-80.937083
-93.981888
-104.061964
-116.217350
-129.262154
-141.417541
-155.055291
-166.024786
-178.476644
-191.521449
-209.013346
-217.611058
-227.098189
-237.178265
-246.368923
-256.448999
-263.564347
-272.162059
-279.277407
-284.910391
-293.211630
-297.065777
-302.402288
-305.663489
-305.663489
-305.663489
-305.959962
-305.663489
-305.367016
-306.552908
-304.181125
-302.105815
-300.623451
-299.734032
-296.176358
-290.246902
-284.020972
-277.498570
-271.272641
-263.860820
-253.484271
-245.479504
-234.806482
-225.022879
-211.978074
-198.636797
-186.481411
-171.657769
-157.427073
-143.492850
-127.779790
-109.398475
-91.906578
-76.786463
-61.666349
-46.546235
-29.647283
-13.044805
2.044131
15.476995
29.493897
43.218779
56.651643
70.376526
82.057277
95.782160
106.878873
117.975587
130.532394
143.089202
157.690141
167.326761
180.467606
194.776526
209.669484
221.350235
230.110798
238.579343
248.800000
259.896714
267.197183
274.497653
280.630047
288.806573
296.691080
301.363380
305.451643
306.619718
308.371831
310.123944
308.955869
309.247887
307.787793
307.787793
306.911737
305.159624
303.699531
300.195305
297.275117
292.602817
285.594366
281.214085
275.373709
265.153052
256.392488
247.339906
237.703286
225.146479
214.925822
202.076995
188.060094
175.211268
158.274178
144.549296
129.364319
112.135211
95.782160
78.553052
63.368075
49.643192
33.582160
16.645070
1.460094
-13.341277
-26.386082
-41.209724
-54.551001
-68.485224
-82.715920
-94.871306
-105.544328
-118.589133
-131.040991
-143.196378
-156.834128
-167.803622
-178.180172
-193.596759
-208.716873
-218.204004
-228.580553
-236.881792
-247.554814
-255.856053
-264.453765
-270.679695
-278.091516
-285.503337
-292.618684
-299.734032
-300.623451
-304.181125
-305.959962
-305.959962
-305.663489
-304.477598
-306.256435
-305.959962
-302.402288
-301.216397
-299.734032
-297.065777
-295.286940
-290.246902
-283.724500
-276.905624
-269.493804
-260.006673
-252.001907
-244.293613
-232.731173
-223.836988
-210.199237
-198.340324
-183.516683
-168.693041
-154.758818
-139.342231
-124.815062
-105.544328
-89.534795
-74.414681
-57.515729
-44.767398
-27.868446
-9.487131
2.336150
17.813146
30.953991
45.554930
58.695775
71.544601
86.729577
97.826291
109.799061
121.187793
132.868545
146.009390
159.442254
169.954930
182.511737
196.820657
211.713615
222.226291
230.402817
241.207512
250.552113
259.896714
268.073239
275.957746
283.258216
290.266667
298.443192
301.655399
306.035681
307.787793
307.495775
309.247887
308.663850
308.955869
309.539906
308.955869
307.203756
304.867606
303.991549
300.779343
298.735211
294.354930
285.594366
280.630047
273.913615
266.321127
254.640376
247.631925
237.411268
224.562441
213.173709
200.324883
186.307981
171.415023
155.353991
142.213146
127.320188
108.046948
92.277934
75.340845
61.615962
46.138967
29.493897
14.600939
-0.296473
-16.009533
-29.054337
-43.581506
-57.219256
-70.857007
-84.494757
-95.760724
-107.916111
-118.885605
-132.226883
-143.789323
-160.095329
-167.507150
-180.551954
-195.968541
-210.199237
-220.575786
-228.877026
-238.957102
-248.147760
-257.931363
-266.232602
-273.051478
-279.573880
-288.468065
-294.693994
-299.141087
-301.216397
-304.477598
-306.552908
-305.663489
-306.552908
-305.663489
-305.959962
-305.367016
-303.588179
-300.919924
-300.623451
-298.844614
-294.693994
-290.246902
-282.538608
-276.609152
-267.122021
-261.192564
-251.408961
-243.107722
-232.731173
-222.354623
-210.495710
-196.561487
-182.034318
-167.210677
-152.683508
-139.045758
-123.925643
-105.840801
-89.238322
-72.932316
-56.329838
-41.506196
-26.682555
-10.376549
4.964319
17.813146
32.998122
45.262911
59.571831
72.712676
85.561502
99.286385
108.923005
120.019718
134.328638
145.425352
159.150235
169.662911
182.219718
197.404695
211.421596
222.226291
232.154930
241.207512
250.844131
262.524883
268.073239
275.665728
282.382160
289.390610
297.859155
301.947418
305.743662
307.203756
308.079812
310.123944
308.955869
309.247887
308.371831
308.371831
306.911737
304.575587
303.407512
301.071362
298.151174
293.478873
287.346479
280.046009
273.329577
264.569014
254.932394
246.171831
233.615023
224.270423
212.297653
198.280751
184.847887
168.786854
154.477934
140.461033
125.860094
107.170892
90.525822
74.172770
59.863850
44.386854
28.033803
11.972770
-1.482364
-16.602479
-31.426120
-44.174452
-56.626311
-70.560534
-83.901811
-96.057197
-109.991420
-120.960915
-135.191611
-147.643470
-159.205910
-170.768351
-182.034318
-198.340324
-212.274547
-221.465205
-231.545281
-239.253575
-249.630124
-259.117255
-267.122021
-272.162059
-279.573880
-289.653956
-296.769304
-299.734032
-302.698761
-304.181125
-306.552908
-305.663489
-305.663489
-307.738799
-305.663489
-305.663489
-302.698761
-301.512869
-300.326978
-297.658723
-294.397521
-289.061010
-283.428027
-276.609152
-268.307912
-260.006673
-250.816015
-241.328885
-231.545281
-219.389895
-207.827455
-194.486177
-181.737846
-165.431840
-150.015253
-138.156339
-121.257388
-103.172545
-85.384175
-70.560534
-55.143947
-39.727359
-23.717827
-7.115348
6.424413
21.025352
34.750235
47.599061
61.323944
74.464789
85.853521
99.286385
110.091080
122.355869
135.496714
148.053521
162.070423
171.999061
183.971831
199.740845
212.589671
223.978404
233.030986
242.083568
251.720188
262.232864
270.409390
276.249765
283.258216
292.018779
297.567136
303.115493
303.699531
307.203756
308.371831
308.079812
309.831925
308.955869
308.955869
306.911737
305.743662
304.283568
303.115493
299.027230
297.567136
289.974648
285.302347
279.169953
273.037559
262.816901
253.472300
245.003756
233.615023
223.102347
212.005634
198.864789
183.971831
169.662911
154.477934
140.753052
124.692019
105.418779
89.357746
74.464789
58.695775
43.802817
26.573709
11.096714
-2.964728
-16.898951
-31.129647
-43.285033
-58.998093
-72.042898
-85.087703
-97.243089
-109.694948
-121.850334
-134.302193
-147.346997
-159.798856
-169.285987
-184.109628
-198.933270
-211.978074
-223.540515
-231.545281
-240.439466
-250.519542
-258.524309
-267.714967
-273.940896
-281.352717
-288.468065
-295.286940
-300.623451
-302.698761
-304.181125
-306.552908
-306.849380
-306.552908
-305.367016
-306.552908
-304.477598
-304.477598
-301.512869
-298.548141
-296.176358
-292.915157
-286.096282
-281.352717
-274.830315
-267.418494
-258.820782
-250.223070
-239.846520
-231.545281
-218.500477
-206.938036
-194.189704
-179.662536
-164.838894
-149.422307
-135.784557
-120.071497
-100.207817
-84.791230
-69.671115
-53.068637
-37.652050
-21.938990
-7.115348
7.300469
21.609390
37.086385
49.643192
63.660094
76.508920
89.649765
101.622535
112.427230
124.400000
137.248826
149.513615
162.654460
173.751174
186.307981
201.200939
214.049765
225.438498
235.075117
244.127700
253.180282
263.692958
270.993427
277.709859
285.010329
291.726761
299.611268
304.575587
305.451643
307.495775
309.247887
308.955869
309.831925
309.247887
308.371831
308.955869
306.327700
303.699531
302.531455
299.903286
297.275117
291.142723
285.594366
279.169953
271.869484
261.064789
252.888263
243.251643
233.615023
221.350235
210.253521
196.820657
181.927700
167.618779
153.017840
138.416901
122.063850
103.666667
87.313615
72.420657
57.235681
41.758685
25.989671
8.468545
-5.632984
-19.567207
-33.797903
-47.435653
-61.666349
-75.600572
-89.534795
-100.207817
-112.066730
-123.925643
-137.563394
-150.904671
-162.763584
-171.954242
-185.888465
-200.119161
-213.163966
-222.947569
-232.138227
-241.328885
-252.001907
-261.192564
-266.529075
-273.940896
-281.945663
-289.950429
-294.990467
-300.919924
-303.291706
-304.774071
-305.367016
-308.035272
-306.849380
-306.256435
-305.959962
-306.256435
-304.774071
-301.512869
-298.548141
-297.362250
-292.618684
-287.282173
-281.649190
-275.719733
-267.714967
-256.745472
-249.333651
-238.957102
-228.877026
-217.018112
-203.380362
-192.114395
-177.883699
-160.984747
-148.532888
-133.116301
-117.403241
-96.946616
-81.530029
-66.706387
-50.696854
-36.466158
-20.160153
-4.150620
9.928638
25.989671
38.838498
52.271362
63.660094
77.969014
91.401878
103.374648
113.887324
127.028169
139.584977
151.849765
163.822535
174.335211
188.644131
203.537089
217.553991
227.190610
235.075117
245.003756
255.224413
263.984977
271.577465
278.001878
285.594366
292.894836
299.611268
304.283568
306.911737
308.955869
308.955869
309.539906
309.247887
309.539906
308.955869
307.787793
307.495775
305.743662
303.407512
299.319249
295.815023
289.682629
283.550235
278.001878
269.825352
261.356808
251.720188
243.251643
232.154930
221.642254
208.793427
195.652582
179.883568
165.282629
151.265728
138.708920
121.187793
103.374648
86.729577
71.252582
56.067606
41.174648
24.237559
8.176526
-5.040038
-19.567207
-33.797903
-46.842707
-61.666349
-75.007626
-88.348904
-99.318398
-112.363203
-123.036225
-136.377502
-150.608198
-161.874166
-171.954242
-187.667302
-201.305052
-215.239276
-225.615825
-232.731173
-242.218303
-252.298379
-260.896092
-268.604385
-276.016206
-281.945663
-289.357483
-295.879886
-299.734032
-302.995234
-304.477598
-306.256435
-307.145853
-306.552908
-305.663489
-305.663489
-304.774071
-302.105815
-301.216397
-299.734032
-296.769304
-292.322212
-288.171592
-282.242135
-274.237369
-266.825548
-256.745472
-247.258341
-239.253575
-227.691134
-215.832221
-204.269781
-190.039085
-176.697807
-161.874166
-147.346997
-132.226883
-115.031459
-97.539561
-81.233556
-66.409914
-49.807436
-34.687321
-17.788370
-2.668255
10.512676
25.113615
38.546479
51.395305
65.996244
79.721127
91.401878
103.958685
115.055399
126.736150
139.876995
153.017840
164.698592
174.043192
189.228169
203.537089
217.261972
228.066667
236.827230
245.879812
255.224413
266.029108
273.037559
279.753991
288.514554
292.894836
300.779343
303.699531
306.327700
308.079812
307.787793
310.415962
309.247887
309.247887
308.079812
308.079812
306.911737
303.991549
302.239437
299.319249
294.646948
289.098592
284.134272
277.417840
268.365258
260.188732
250.844131
241.207512
230.402817
219.598122
207.333333
193.316432
179.591549
164.114554
149.805634
137.540845
118.851643
100.454460
84.101408
70.084507
55.191549
38.254460
22.777465
7.592488
-6.818875
-21.049571
-35.576740
-48.918017
-61.962822
-76.193518
-89.238322
-100.504290
-113.845567
-123.629171
-138.156339
-151.201144
-162.170639
-173.140133
-186.481411
-203.083889
-215.535748
-226.505243
-233.324118
-242.514776
-252.891325
-261.489037
-268.307912
-273.940896
-281.056244
-291.729266
-297.362250
-300.326978
-303.291706
-305.367016
-305.070543
-305.959962
-306.256435
-305.663489
-306.256435
-303.588179
-302.698761
-301.809342
-299.437560
-295.879886
-290.839847
-286.096282
-278.684461
-271.569113
-264.453765
-255.263108
-247.258341
-236.881792
-226.505243
-214.646330
-201.305052
-187.667302
-173.733079
-159.205910
-144.975214
-129.855100
-112.956149
-94.871306
-79.158246
-63.445186
-48.325071
-32.019066
-16.009533
-0.592946
14.308920
27.449765
41.174648
55.191549
68.040376
81.181221
94.614085
106.294836
117.391549
129.656338
141.921127
155.061972
167.034742
178.131455
191.856338
207.333333
219.014085
229.234742
237.995305
247.923944
257.268545
266.321127
272.161502
280.630047
288.514554
294.646948
299.903286
304.283568
306.619718
309.247887
308.955869
309.831925
308.371831
311.000000
308.663850
307.203756
306.619718
303.991549
302.239437
298.735211
295.523005
290.266667
283.550235
276.541784
268.073239
259.312676
251.720188
240.623474
229.818779
218.430047
205.289202
190.980282
176.379343
161.778404
149.513615
134.036620
116.223474
99.578404
83.517371
67.456338
52.855399
37.378404
21.317371
4.672300
-9.190658
-23.421354
-38.244995
-50.696854
-64.631077
-78.268827
-91.610105
-102.876072
-115.031459
-127.483317
-139.935176
-153.276454
-165.431840
-176.104862
-190.039085
-204.862726
-217.018112
-226.801716
-235.102955
-245.183031
-254.966635
-263.564347
-270.383222
-278.684461
-281.945663
-292.322212
-297.065777
-302.105815
-304.477598
-303.588179
-305.367016
-306.849380
-306.256435
-305.959962
-304.181125
-304.774071
-302.402288
-300.623451
-300.919924
-296.472831
-290.543375
-284.910391
-279.277407
-272.458532
-265.046711
-254.966635
-245.775977
-236.288847
-226.208770
-213.163966
-201.305052
-187.074357
-172.547188
-158.316492
-143.789323
-128.076263
-111.770257
-93.981888
-78.268827
-62.555767
-47.139180
-31.722593
-14.230696
1.168075
14.308920
27.449765
40.298592
54.899531
68.916432
81.181221
94.030047
107.170892
116.807512
130.532394
142.797183
155.353991
168.202817
177.839437
193.024413
208.793427
219.598122
228.650704
239.455399
248.215962
257.268545
266.613146
274.497653
280.922066
287.930516
294.938967
300.487324
303.699531
306.035681
308.079812
308.663850
309.247887
310.415962
308.079812
308.371831
308.371831
305.743662
303.991549
301.655399
298.735211
294.354930
287.346479
282.382160
275.665728
268.073239
258.436620
248.507981
239.747418
227.190610
217.553991
204.121127
191.272300
175.795305
161.194366
148.345540
132.284507
115.055399
96.658216
81.473239
65.704225
50.811268
34.166197
18.397183
3.212207
-11.562440
-25.496663
-39.134414
-52.179218
-66.706387
-79.158246
-92.499523
-104.358437
-115.031459
-128.076263
-142.010486
-154.165872
-166.617731
-176.401335
-192.114395
-206.641563
-218.500477
-228.284080
-236.881792
-246.368923
-255.263108
-265.046711
-273.051478
-278.091516
-286.689228
-292.618684
-298.844614
-302.402288
-303.588179
-306.256435
-306.552908
-306.552908
-306.552908
-306.849380
-305.367016
-304.477598
-302.698761
-300.030505
-299.734032
-295.879886
-289.653956
-284.317445
-278.980934
-271.865586
-263.860820
-254.077216
-243.700667
-235.102955
-225.912297
-211.385129
-198.340324
-184.406101
-170.471878
-156.241182
-142.010486
-127.779790
-109.102002
-91.017159
-76.786463
-61.369876
-46.249762
-28.757865
-13.044805
1.168075
14.892958
29.493897
44.094836
56.651643
69.208451
82.641315
95.490141
107.754930
119.143662
131.116432
144.257277
156.230047
