74.394934
86.356473
102.402439
115.530957
127.200750
142.079737
151.415572
163.668856
180.881801
196.636023
206.555347
218.516886
227.269231
237.480300
247.107880
257.610694
273.073171
279.783302
286.201689
294.662289
298.746717
300.788931
302.539400
303.998124
299.621951
303.706379
304.873358
303.414634
305.165103
301.955910
296.996248
296.704503
292.911820
289.410882
282.700750
275.990619
268.113508
259.361163
247.983114
239.522514
228.144465
217.933396
202.762664
185.549719
173.588180
159.876173
140.621013
126.325516
108.237336
93.650094
77.020638
55.431520
40.260788
23.339587
10.794559
-6.786528
-19.179317
-32.162239
-49.866224
-66.094877
-76.127135
-83.798861
-94.126186
-113.010436
-116.256167
-131.304554
-137.500949
-156.975332
-159.335863
-174.679317
-184.711575
-192.088235
-205.956357
-222.480076
-234.282732
-236.643264
-247.265655
-259.363378
-263.494307
-269.690702
-281.198292
-283.853890
-287.984820
-297.131879
-305.393738
-304.803605
-303.033207
-306.278937
-308.344402
-309.819734
-311.000000
-306.278937
-309.819734
-305.688805
-304.508539
-304.508539
-297.722011
-295.656546
-287.394687
-285.034156
-275.887097
-275.296964
-261.428843
-254.937381
-247.265655
-236.938330
-219.824478
-205.956357
-197.989564
-188.252372
-169.368121
-156.975332
-143.107211
-128.648956
-110.059772
-92.060721
-77.897533
-63.439279
-45.440228
-32.457306
-13.573055
1.166979
11.961538
26.257036
41.719512
57.473734
69.435272
84.022514
95.108818
109.112570
121.365854
133.619137
146.164165
157.833959
171.254221
182.924015
196.636023
213.848968
225.810507
231.937148
244.190432
253.526266
262.862101
267.530019
275.698874
284.451220
289.410882
296.996248
301.080675
302.247655
308.957786
308.666041
306.915572
307.790807
306.332083
304.581614
307.207317
304.873358
301.664165
301.080675
296.121013
295.829268
287.076923
281.533771
274.823640
264.904315
256.735460
245.940901
233.687617
222.601313
211.515009
195.469043
183.799250
167.753283
150.540338
137.995310
121.949343
105.903377
86.648218
69.435272
53.972795
39.093809
24.506567
8.460600
-7.966793
-23.015180
-36.588235
-50.751423
-64.324478
-76.717268
-88.814991
-100.912713
-113.010436
-123.042694
-135.730550
-147.238140
-159.335863
-172.023719
-181.465844
-194.448767
-208.021822
-220.709677
-228.971537
-237.233397
-248.740987
-256.117647
-265.854839
-269.395636
-276.182163
-283.853890
-293.000949
-296.836812
-300.967742
-304.508539
-305.983871
-308.049336
-306.278937
-307.459203
-307.459203
-305.983871
-305.393738
-303.328273
-302.443074
-299.787476
-298.607211
-293.591082
-286.509488
-280.903226
-276.182163
-267.625237
-258.773245
-251.396584
-241.069260
-230.151803
-218.939279
-207.136622
-193.858634
-181.170778
-165.532258
-152.254269
-139.861480
-122.747628
-106.223909
-87.634725
-74.061670
-59.013283
-44.259962
-29.211575
-12.687856
2.917448
16.045966
31.508443
44.928705
58.640713
71.769231
85.189493
98.318011
110.863039
122.532833
136.244841
149.081614
161.918386
173.296435
185.841463
201.012195
216.474672
224.351782
234.271107
245.940901
255.276735
264.320826
271.614447
278.908068
283.867730
292.328330
299.913696
302.831144
305.456848
306.040338
306.623827
308.957786
308.082552
307.207317
307.499062
306.623827
303.122889
302.539400
301.372420
298.746717
292.328330
287.076923
281.825516
275.115385
266.654784
257.027205
245.649156
236.605066
223.768293
213.265478
198.969981
184.966229
170.087242
152.874296
138.870544
123.991557
107.653846
89.857411
73.519700
57.473734
43.178236
26.548780
10.794559
-5.311195
-19.474383
-31.867173
-46.325427
-60.193548
-74.356736
-87.339658
-98.257116
-111.240038
-123.632827
-136.025617
-146.648008
-159.040797
-169.958254
-180.285579
-194.153700
-209.497154
-219.824478
-229.266603
-237.233397
-249.036053
-255.527514
-263.494307
-271.461101
-275.592030
-285.034156
-292.410816
-297.131879
-302.443074
-304.803605
-305.688805
-307.164137
-306.869070
-305.983871
-307.164137
-307.459203
-306.869070
-303.918406
-301.262808
-300.082543
-297.131879
-293.886148
-286.509488
-281.198292
-274.116698
-267.625237
-257.888046
-250.511385
-239.593928
-228.381404
-216.873814
-205.661290
-191.793169
-178.220114
-162.876660
-150.188805
-135.730550
-120.092030
-102.978178
-84.684061
-71.701139
-56.357685
-40.424099
-25.375712
-8.556926
4.959662
19.255159
33.258912
46.970919
62.141651
75.270169
86.939962
100.360225
110.863039
123.699812
138.578799
150.540338
162.793621
175.338649
187.591932
203.929644
216.766417
227.269231
234.562852
246.816135
255.860225
265.196060
273.656660
279.491557
286.493433
294.662289
298.746717
302.247655
305.165103
308.374296
308.082552
308.374296
306.915572
306.623827
307.207317
305.456848
303.998124
301.372420
300.788931
296.704503
293.787054
287.952158
280.950281
273.948405
264.904315
256.151970
247.107880
236.313321
224.643527
213.265478
199.261726
184.674484
171.254221
156.375235
142.079737
127.492495
109.987805
92.191370
75.561914
60.099437
44.345216
30.341463
12.836773
-2.360531
-17.703985
-31.277040
-45.735294
-58.128083
-71.406072
-84.093928
-95.896584
-108.289374
-120.092030
-132.484820
-145.762808
-157.270398
-168.187856
-178.515180
-193.268501
-208.021822
-219.529412
-229.856736
-236.643264
-247.560721
-256.412713
-264.084440
-269.985769
-277.952562
-285.034156
-292.115750
-298.607211
-302.148008
-302.148008
-304.803605
-307.164137
-306.278937
-306.278937
-306.574004
-306.278937
-305.688805
-304.803605
-301.852941
-298.902277
-295.951613
-290.345351
-283.853890
-278.837761
-273.821632
-264.379507
-255.822581
-246.970588
-236.938330
-226.906072
-214.513283
-203.005693
-188.252372
-174.089184
-161.401328
-147.533207
-132.779886
-115.370968
-97.962049
-83.503795
-67.275142
-51.931689
-37.768501
-21.834915
-5.606262
8.168856
23.923077
36.468105
49.888368
64.183865
77.604128
90.732645
102.694184
115.822702
126.617261
141.204503
153.749531
165.127580
176.505629
191.676360
207.430582
218.516886
228.144465
238.063790
247.983114
258.194184
266.946529
275.115385
280.366792
289.119137
295.245779
300.205441
303.706379
305.748593
307.790807
308.374296
309.249531
308.374296
307.499062
306.623827
306.915572
304.873358
303.414634
299.913696
297.287992
292.620075
287.076923
281.825516
274.240150
265.779550
256.151970
246.816135
236.605066
224.935272
212.098499
198.386492
184.966229
168.920263
154.624765
140.912758
124.866792
109.112570
89.565666
74.978424
59.224203
43.761726
29.174484
11.669794
-2.655598
-17.999051
-31.867173
-46.030361
-59.308349
-72.291271
-85.569260
-98.257116
-109.764706
-122.747628
-135.140417
-147.533207
-161.106262
-169.368121
-180.580645
-196.514231
-210.087287
-221.004744
-230.151803
-237.823529
-246.970588
-256.707780
-264.674573
-270.575901
-279.427894
-286.509488
-292.115750
-298.607211
-303.918406
-304.803605
-304.508539
-306.278937
-306.869070
-309.819734
-306.278937
-305.098672
-306.278937
-302.443074
-302.443074
-297.131879
-295.361480
-290.345351
-285.624288
-279.132827
-272.346300
-263.789374
-254.347249
-245.200190
-234.282732
-225.135674
-212.742884
-200.645161
-187.957306
-171.138520
-157.860531
-145.172676
-130.419355
-113.305503
-96.191651
-80.258065
-65.504744
-49.571157
-33.637571
-16.818786
-2.065465
11.961538
26.257036
41.427767
53.097561
66.517824
81.105066
92.483114
105.611632
116.989681
129.534709
142.663227
155.208255
167.461538
179.714822
194.593809
209.472795
220.559099
229.894934
239.522514
249.733583
259.069418
268.113508
274.823640
281.242026
288.535647
294.954034
300.788931
303.998124
305.748593
307.207317
308.374296
308.082552
308.957786
307.499062
307.790807
306.915572
304.289869
302.247655
300.497186
295.829268
292.328330
287.076923
278.908068
274.240150
264.320826
255.276735
246.524390
235.729831
223.476548
211.223265
198.094747
185.257974
169.503752
154.041276
141.787992
125.158537
108.237336
91.899625
73.811445
59.807692
43.761726
27.715760
12.545028
-2.655598
-17.408918
-31.572106
-46.325427
-58.423150
-72.291271
-85.569260
-97.371917
-108.879507
-121.272296
-134.550285
-146.943074
-160.516129
-171.138520
-181.760911
-195.924099
-210.677419
-220.709677
-229.266603
-239.298861
-248.445920
-257.592979
-265.854839
-271.756167
-278.247628
-287.099620
-294.181214
-297.722011
-302.148008
-305.393738
-305.098672
-308.344402
-305.393738
-306.278937
-306.869070
-305.688805
-303.033207
-301.557875
-300.967742
-297.131879
-294.771347
-288.574953
-283.853890
-276.477230
-269.100569
-262.314042
-252.576850
-244.610057
-234.282732
-222.185009
-211.562619
-197.989564
-183.826376
-171.433586
-156.975332
-144.287476
-128.353890
-111.535104
-93.831120
-79.667932
-62.849146
-48.981025
-32.457306
-17.113852
-1.180266
13.712008
27.424015
42.011257
56.015009
68.268293
81.688555
95.108818
106.486867
118.156660
130.993433
143.830206
156.958724
167.461538
179.714822
194.885553
210.056285
221.434334
230.478424
240.397749
250.608818
259.944653
267.821764
275.407129
282.992495
288.827392
296.121013
301.372420
304.581614
305.456848
308.666041
308.374296
308.374296
307.499062
307.790807
307.790807
306.915572
302.831144
301.372420
298.454972
297.287992
291.744841
286.785178
280.075047
271.906191
262.570356
255.276735
246.232645
234.562852
224.060038
210.056285
197.511257
182.048780
168.628518
153.166041
138.870544
122.824578
107.070356
88.398687
73.227955
58.348968
43.469981
25.965291
11.669794
-4.721063
-19.179317
-32.457306
-46.620493
-60.193548
-73.471537
-87.929791
-100.322581
-112.125237
-123.927894
-135.140417
-147.828273
-160.221063
-169.663188
-181.465844
-197.399431
-212.152751
-222.775142
-231.627135
-239.593928
-249.921252
-260.838710
-267.330171
-273.821632
-280.018027
-287.689753
-293.296015
-299.197343
-302.148008
-303.623340
-306.278937
-305.688805
-308.344402
-306.869070
-305.688805
-305.983871
-303.918406
-302.738140
-299.492410
-297.722011
-293.591082
-288.279886
-282.673624
-275.887097
-269.100569
-261.133776
-250.511385
-243.134725
-232.807400
-221.889943
-210.087287
-196.219165
-183.531309
-169.368121
-155.500000
-141.041746
-125.993359
-108.584440
-91.765655
-75.832068
-61.373814
-45.440228
-30.096774
-14.753321
1.166979
14.878987
29.757974
45.220450
56.890244
69.727017
83.730769
95.108818
107.945591
119.615385
131.285178
145.288931
158.709193
169.212008
182.048780
196.927767
212.390244
222.893058
231.353659
241.272983
251.484053
259.944653
268.988743
275.407129
284.159475
290.286116
296.704503
301.372420
303.706379
307.207317
307.499062
308.957786
308.374296
307.207317
307.499062
308.374296
305.165103
302.539400
302.247655
298.454972
296.121013
290.286116
284.742964
277.741088
270.447467
261.986867
253.526266
243.023452
233.395872
222.601313
210.056285
196.927767
183.215760
168.045028
152.582552
139.745779
123.408068
106.195122
89.565666
72.352720
58.348968
42.303002
27.715760
11.086304
-3.540797
-18.589184
-32.457306
-46.620493
-59.603416
-73.471537
-86.159393
-99.437381
-110.944972
-122.452562
-134.550285
-147.238140
-161.106262
-170.843454
-183.531309
-198.284630
-211.562619
-223.070209
-231.627135
-239.593928
-249.331120
-260.543643
-266.740038
-274.411765
-280.608159
-289.165085
-294.771347
-299.787476
-302.738140
-304.803605
-305.983871
-305.098672
-305.983871
-305.983871
-304.803605
-304.213472
-303.328273
-301.262808
-299.197343
-295.656546
-293.000949
-287.099620
-282.083491
-276.182163
-268.805503
-259.363378
-251.101518
-241.364326
-231.037002
-221.299810
-207.431689
-193.268501
-180.580645
-166.417457
-149.893738
-138.091082
-123.042694
-104.748577
-89.110057
-72.881404
-56.947818
-43.374763
-26.260911
-11.212524
4.376173
18.671670
32.675422
47.262664
60.682927
73.811445
86.648218
99.484991
110.571295
123.699812
135.661351
147.914634
161.043152
170.670732
184.382739
199.845216
214.432458
225.518762
234.271107
243.606942
254.109756
262.570356
270.447467
278.032833
283.575985
291.161351
298.746717
302.247655
304.873358
307.499062
309.541276
308.957786
308.957786
309.249531
308.082552
307.499062
306.040338
305.165103
301.955910
299.621951
296.704503
289.994371
284.159475
278.324578
270.739212
260.528143
251.484053
242.731707
231.937148
220.850844
208.014071
195.177298
179.423077
165.127580
151.415572
137.120075
119.907129
102.985929
86.648218
71.769231
56.598499
41.136023
24.214822
9.335835
-7.671727
-19.474383
-34.522770
-49.866224
-62.259013
-75.241935
-89.110057
-102.388046
-113.010436
-124.813093
-138.091082
-151.074004
-162.286528
-172.318786
-184.121442
-200.350095
-214.218216
-223.660342
-232.512334
-242.839658
-252.871917
-260.838710
-268.805503
-274.411765
-282.378558
-288.574953
-294.181214
-300.967742
-303.033207
-304.803605
-305.983871
-305.393738
-306.278937
-306.869070
-306.278937
-304.803605
-302.738140
-301.262808
-299.787476
-295.951613
-291.230550
-285.919355
-280.608159
-275.592030
-266.740038
-257.592979
-249.331120
-239.298861
-229.561670
-218.349146
-205.661290
-192.383302
-177.334915
-165.827324
-149.893738
-136.025617
-121.272296
-102.388046
-86.749526
-69.635674
-54.587287
-39.243833
-24.195446
-7.376660
7.001876
21.880863
35.592871
48.137899
63.600375
76.437148
89.565666
102.402439
112.321764
124.283302
137.411820
150.832083
162.793621
173.879925
187.883677
202.470919
216.182927
225.810507
233.395872
243.315197
254.693246
265.487805
271.030957
278.324578
285.326454
294.078799
300.205441
304.581614
306.623827
307.207317
307.207317
309.833021
308.957786
306.915572
307.499062
307.790807
307.207317
302.831144
300.497186
299.330206
294.954034
290.286116
285.034709
277.157598
268.988743
259.944653
251.775797
243.315197
231.937148
219.392120
207.138837
191.676360
179.714822
163.377111
150.248593
135.077861
119.615385
101.527205
84.897749
69.727017
55.139775
40.260788
23.631332
7.293621
-7.376660
-21.539848
-35.407970
-48.685958
-63.439279
-76.127135
-89.700190
-101.207780
-114.190702
-126.583491
-138.976281
-152.254269
-162.286528
-174.089184
-187.367173
-203.005693
-215.693548
-225.725806
-233.397533
-243.724858
-253.166983
-261.133776
-267.920304
-275.887097
-282.083491
-289.460152
-295.656546
-300.082543
-301.262808
-304.803605
-305.983871
-306.278937
-306.869070
-304.213472
-305.983871
-303.033207
-303.328273
-300.082543
-299.197343
-295.656546
-290.640417
-285.919355
-280.313093
-273.526565
-265.559772
-256.707780
-248.740987
-238.708729
-227.496205
-215.988615
-205.071157
-192.088235
-177.629981
-161.991461
-149.893738
-134.550285
-117.731499
-100.617647
-84.979127
-70.225806
-54.292220
-38.653700
-22.129981
-6.491461
7.877111
22.756098
36.468105
49.013133
64.767355
76.145403
89.857411
101.527205
113.780488
125.450281
138.578799
151.999062
163.668856
173.588180
188.175422
202.762664
217.058161
227.269231
235.729831
245.649156
256.151970
264.029081
271.906191
278.324578
286.201689
294.078799
299.038462
303.706379
306.332083
307.790807
308.666041
309.833021
309.249531
308.957786
306.915572
307.207317
306.623827
305.748593
301.080675
297.871482
294.078799
289.702627
282.992495
277.157598
270.155722
260.236398
252.359287
242.148218
230.478424
219.683865
206.263602
191.676360
177.089118
164.252345
149.373358
135.369606
119.031895
99.776735
85.189493
68.851782
54.264540
38.510319
23.339587
7.001876
-8.556926
-22.720114
-36.883302
-49.276091
-63.734345
-77.602467
-89.700190
-101.502846
-114.485769
-126.583491
-139.271347
-151.959203
-162.876660
-174.089184
-187.957306
-203.595825
-216.578748
-226.315939
-234.577799
-243.724858
-251.986717
-262.314042
-268.215370
-276.182163
-283.853890
-288.870019
-295.361480
-299.492410
-304.803605
-305.393738
-305.983871
-305.983871
-303.623340
-305.688805
-304.508539
-304.213472
-302.738140
-300.672676
-298.017078
-294.476281
-289.755218
-285.919355
-279.722960
-272.936433
-263.789374
-255.527514
-246.675522
-237.528463
-225.725806
-214.218216
-200.350095
-188.547438
-174.679317
-159.925996
-145.467742
-132.189753
-115.075901
-97.076850
-80.848197
-65.209677
-50.751423
-34.817837
-19.474383
-2.360531
11.669794
25.965291
39.385553
53.681051
66.517824
79.062852
93.650094
104.444653
116.406191
128.951220
141.204503
154.333021
165.419325
177.089118
191.968105
207.430582
218.808630
227.852720
237.772045
247.399625
257.610694
266.946529
273.948405
281.533771
287.660413
294.078799
300.497186
303.998124
306.332083
307.790807
309.249531
308.957786
309.249531
309.833021
308.666041
307.207317
305.456848
303.998124
301.080675
298.746717
292.620075
288.535647
282.117261
275.698874
267.530019
258.194184
249.441839
239.522514
226.977486
216.182927
203.346154
190.801126
176.505629
160.751407
146.164165
132.160413
116.406191
98.026266
81.688555
66.517824
51.638837
35.301126
20.130394
4.084428
-11.212524
-25.375712
-40.129032
-53.702087
-66.389943
-78.782732
-92.650854
-105.338710
-116.551233
-129.829222
-141.631879
-155.204934
-165.237192
-175.564516
-189.432638
-206.251423
-218.054080
-225.430740
-235.462998
-246.085389
-256.707780
-263.789374
-269.985769
-276.772296
-283.263757
-291.820683
-297.426945
-301.852941
-303.918406
-304.213472
-304.803605
-306.278937
-307.459203
-305.098672
-304.803605
-303.623340
-301.852941
-300.967742
-297.722011
-294.476281
-290.935484
-284.148956
-277.067362
-271.166034
-264.674573
-253.462049
-245.495256
-235.758065
-226.611006
-213.628083
-200.940228
-186.186907
-172.908918
-157.860531
-144.877609
-129.534156
-112.420304
-95.306452
-78.782732
-64.914611
-48.685958
-32.752372
-16.818786
-0.590133
13.128518
26.840525
40.844278
54.264540
67.976548
80.813321
92.483114
106.195122
117.864916
128.951220
142.954972
155.500000
166.294559
178.256098
192.259850
208.597561
220.850844
230.478424
238.647280
249.441839
260.236398
267.530019
274.240150
281.242026
289.119137
296.121013
300.497186
305.456848
306.040338
309.249531
308.082552
309.541276
309.833021
307.790807
309.249531
308.082552
306.332083
302.831144
299.913696
296.121013
292.620075
287.076923
281.825516
275.407129
266.654784
257.902439
249.150094
238.647280
226.685741
215.307692
201.887430
187.008443
174.171670
159.000938
144.121951
129.826454
113.196998
95.108818
79.354597
64.183865
49.013133
33.550657
18.379925
1.458724
-12.097723
-26.851044
-41.604364
-53.702087
-68.160342
-82.028463
-95.011385
-105.633776
-118.026565
-130.419355
-143.992410
-156.680266
-167.597723
-177.039848
-193.563567
-206.546490
-219.529412
-228.086338
-237.528463
-247.855787
-256.412713
-265.264706
-271.756167
-281.493359
-287.099620
-293.000949
-297.426945
-301.262808
-303.918406
-305.098672
-305.983871
-305.393738
-305.983871
-304.803605
-304.803605
-302.738140
-302.148008
-299.787476
-296.836812
-294.181214
-287.394687
-284.444023
-278.837761
-270.870968
-262.609108
-252.871917
-244.314991
-233.987666
-223.070209
-210.382353
-197.399431
-185.596774
-171.433586
-156.680266
-141.926945
-127.468691
-110.059772
-92.945920
-76.717268
-60.783681
-46.915560
-30.096774
-15.048387
-0.000000
15.754221
28.882739
43.761726
57.181989
70.018762
84.022514
96.275797
107.945591
119.615385
130.993433
144.705441
156.958724
166.878049
179.131332
194.010319
209.472795
220.850844
230.478424
239.522514
250.900563
259.652908
268.113508
274.823640
283.284240
289.119137
295.829268
300.788931
305.165103
305.165103
307.790807
309.541276
308.082552
307.207317
308.082552
307.790807
306.915572
304.873358
302.247655
301.664165
295.829268
292.911820
286.201689
280.950281
273.364916
264.904315
256.151970
247.399625
237.188555
224.643527
212.973734
201.012195
186.133208
172.129456
156.083490
144.121951
129.534709
109.696060
92.774859
77.020638
62.725141
47.846154
31.508443
16.045966
-0.295066
-14.753321
-27.736243
-42.194497
-56.357685
-69.045541
-82.618596
-94.421252
-107.699241
-120.092030
-133.370019
-145.172676
-159.630930
-168.777989
-179.990512
-195.629032
-210.087287
-221.594877
-229.266603
-238.118596
-247.855787
-257.297913
-263.789374
-272.051233
-278.542694
-285.919355
-294.476281
-298.607211
-300.967742
-303.623340
-304.508539
-307.164137
-306.574004
-305.393738
-303.918406
-304.508539
-304.213472
-300.967742
-299.492410
-296.246679
-292.410816
-289.165085
-281.788425
-275.592030
-269.690702
-260.543643
-250.511385
-242.839658
-232.217268
-222.185009
-209.497154
-197.989564
-183.236243
-168.187856
-154.909867
-141.336812
-125.108159
-108.289374
-91.765655
-75.537002
-59.013283
-44.850095
-29.801708
-13.277989
1.750469
16.337711
31.216698
44.636961
57.181989
72.352720
84.897749
96.859287
107.945591
119.031895
132.743902
145.288931
158.709193
169.212008
180.881801
196.636023
211.806754
222.893058
230.478424
240.981238
251.775797
261.111632
269.572233
275.407129
282.409006
291.453096
296.704503
301.955910
305.748593
307.499062
308.666041
308.666041
307.207317
308.957786
308.666041
306.915572
307.790807
304.581614
302.247655
300.205441
295.829268
292.328330
285.034709
280.366792
273.656660
264.029081
255.568480
245.649156
236.021576
224.643527
212.681989
199.261726
184.382739
170.670732
155.500000
141.204503
128.367730
110.279550
92.483114
77.312383
61.849906
48.429644
31.508443
16.337711
-0.295066
-14.753321
-29.211575
-43.669829
-55.767552
-69.635674
-82.618596
-95.601518
-107.994307
-118.911765
-132.779886
-144.582543
-157.860531
-168.187856
-180.285579
-195.038899
-210.382353
-220.709677
-229.561670
-238.118596
-249.036053
-257.297913
-266.149905
-271.756167
-281.198292
-287.394687
-293.591082
-297.722011
-302.148008
-303.033207
-306.278937
-305.393738
-303.918406
-305.393738
-304.803605
-304.803605
-303.328273
-299.787476
-299.492410
-295.361480
-291.820683
-288.870019
-282.673624
-276.182163
-268.510436
-259.658444
-251.986717
-241.069260
-231.332068
-220.119545
-207.136622
-194.448767
-180.875712
-166.122391
-151.074004
-138.091082
-122.452562
-104.158444
-88.519924
-72.586338
-56.652751
-43.669829
-26.851044
-10.327324
5.251407
19.838649
32.967167
47.554409
61.849906
74.394934
86.648218
100.651970
111.738274
123.991557
136.244841
149.373358
162.210131
172.421201
185.257974
201.303940
214.140713
225.227017
232.812383
243.606942
253.526266
262.278612
270.155722
277.741088
284.742964
291.161351
297.579737
302.539400
305.165103
306.915572
309.541276
310.124765
308.666041
307.790807
308.957786
308.082552
307.207317
303.998124
301.664165
301.080675
296.412758
290.286116
284.742964
278.908068
272.781426
263.153846
254.693246
245.940901
233.687617
222.309568
210.931520
196.927767
183.215760
168.045028
153.166041
140.621013
124.283302
106.778612
90.149156
74.394934
59.515947
44.053471
28.299250
11.669794
-2.655598
-17.408918
-31.277040
-45.735294
-58.423150
-73.471537
-85.274194
-96.781784
-110.059772
-122.452562
-136.025617
-148.713472
-159.040797
-171.138520
-183.531309
-198.579696
-213.333017
-223.070209
-231.332068
-240.184061
-251.396584
-260.543643
-267.625237
-273.526565
-281.198292
-288.870019
-295.361480
-299.787476
-300.672676
-304.508539
-305.688805
-305.983871
-305.098672
-306.278937
-306.574004
-304.803605
-302.148008
-300.672676
-299.197343
-296.836812
-291.230550
-286.804554
-280.903226
-274.411765
-266.740038
-258.183112
-250.216319
-241.364326
-230.151803
-219.529412
-207.136622
-194.448767
-179.695446
-164.942125
-149.598672
-136.615750
-119.206831
-102.683112
-85.569260
-70.520873
-55.767552
-40.719165
-24.490512
-8.261860
6.126642
21.005629
36.468105
49.304878
62.433396
75.561914
88.690432
101.235460
111.738274
124.283302
137.411820
149.956848
162.210131
172.421201
186.133208
202.179174
214.432458
225.810507
233.979362
243.606942
254.109756
264.029081
271.322702
278.032833
285.326454
292.911820
299.330206
303.998124
306.040338
306.915572
308.374296
309.249531
310.124765
308.957786
307.790807
307.207317
306.040338
305.748593
301.955910
299.621951
296.121013
289.994371
283.867730
277.741088
270.155722
261.695122
252.651032
243.606942
231.353659
221.142589
209.181051
194.885553
181.173546
166.294559
150.832083
138.870544
121.365854
104.152908
88.398687
72.060976
57.181989
41.719512
26.257036
10.502814
-4.721063
-19.474383
-33.047438
-48.095825
-61.668880
-75.241935
-88.224858
-100.617647
-113.010436
-125.108159
-136.615750
-150.188805
-162.286528
-171.138520
-184.711575
-200.645161
-213.333017
-224.545541
-231.332068
-241.659393
-251.101518
-259.953510
-268.510436
-273.821632
-282.083491
-288.870019
-295.361480
-299.787476
-303.033207
-304.508539
-304.803605
-305.983871
-307.459203
-307.459203
-305.393738
-304.213472
-302.443074
-300.377609
-298.312144
-295.066414
-291.525617
-287.394687
-280.903226
-275.001898
-264.969639
-256.412713
-248.445920
-238.708729
-228.086338
-218.349146
-204.481025
-190.612903
-177.629981
-162.286528
-149.893738
-133.074953
-117.731499
-99.732448
-83.503795
-67.570209
-51.931689
-38.063567
-21.539848
-7.081594
10.502814
23.631332
36.759850
50.763602
64.475610
77.604128
90.732645
102.985929
115.239212
126.909006
138.870544
152.874296
163.668856
174.171670
187.883677
203.054409
217.349906
226.977486
235.438086
245.940901
255.860225
264.029081
271.906191
279.199812
286.785178
293.495310
299.621951
302.831144
307.499062
306.915572
308.374296
309.249531
308.957786
309.249531
307.499062
307.207317
306.040338
304.581614
300.497186
298.163227
296.121013
290.286116
282.992495
277.157598
270.155722
259.944653
250.608818
241.856473
231.645403
219.392120
205.096623
193.718574
179.131332
163.960600
150.832083
135.953096
120.198874
102.110694
86.648218
70.893996
56.598499
41.136023
25.090056
8.752345
-4.425996
-20.359583
-34.817837
-47.210626
-61.373814
-76.422201
-89.110057
-100.912713
-113.305503
-124.813093
-138.386148
-150.188805
-162.876660
-172.908918
-187.957306
-201.530361
-215.693548
-224.840607
-233.102467
-243.134725
-252.281784
-260.838710
-268.215370
-276.772296
-283.263757
-290.345351
-295.361480
-299.492410
-303.033207
-304.803605
-305.393738
-307.164137
-305.983871
-305.983871
-304.508539
-304.213472
-301.557875
-300.082543
-298.017078
-296.541746
-289.460152
-285.329222
-279.132827
-272.051233
-264.969639
-255.232448
-246.970588
-237.233397
-226.020873
-215.103416
-202.415560
-190.317837
-175.859583
-159.925996
-146.648008
-133.074953
-115.961101
-98.847249
-82.913662
-65.799810
-53.111954
-37.178368
-20.654649
-5.901328
9.919325
23.631332
37.343340
51.930582
65.934334
78.187617
91.607880
103.861163
114.072233
127.492495
139.454034
151.415572
163.377111
174.463415
188.175422
202.762664
217.349906
226.685741
236.313321
246.816135
256.151970
265.487805
273.364916
278.324578
287.076923
294.954034
301.080675
303.998124
306.915572
306.623827
308.082552
308.666041
308.374296
307.499062
307.790807
308.082552
306.623827
303.122889
299.913696
299.038462
294.078799
290.286116
282.992495
275.990619
268.113508
259.069418
250.608818
240.689493
230.478424
219.100375
206.263602
192.259850
177.380863
163.377111
149.665103
135.369606
118.448405
101.527205
84.897749
69.727017
54.848030
39.677298
23.631332
7.877111
-7.966793
-20.359583
-35.407970
-49.571157
-63.734345
-76.127135
-88.224858
-100.912713
-113.305503
-125.108159
-138.091082
-151.959203
-161.991461
-174.384250
-187.957306
-203.005693
-216.283681
-226.020873
-232.807400
-244.019924
-253.757116
-261.723909
-268.510436
-275.296964
-284.739089
-292.410816
-296.246679
-302.738140
-302.738140
-305.983871
-305.098672
-303.918406
-305.983871
-306.869070
-304.803605
-305.098672
-301.557875
-298.312144
-298.017078
-294.771347
-289.755218
-284.739089
-278.837761
-273.526565
-264.084440
-254.347249
-246.675522
-236.053131
-226.315939
-213.923150
-202.120493
-187.662239
-173.794118
-158.450664
-144.877609
-129.829222
-113.895636
-95.601518
-79.372865
-64.324478
-48.685958
-32.162239
-17.408918
-1.475332
13.128518
27.132270
41.719512
54.556285
67.976548
81.396811
93.650094
107.070356
116.406191
130.409944
142.663227
155.791745
168.045028
179.131332
192.843340
209.181051
219.100375
229.894934
237.772045
248.274859
259.069418
266.946529
274.240150
281.825516
288.535647
294.662289
300.205441
304.873358
307.790807
308.374296
309.541276
308.957786
311.000000
309.541276
308.666041
307.499062
307.207317
304.289869
301.372420
298.163227
292.620075
289.119137
282.700750
275.115385
267.530019
259.069418
249.733583
239.814259
228.436210
216.474672
203.054409
189.634146
175.922139
162.210131
147.622889
132.160413
115.530957
97.442777
82.563790
65.642589
51.638837
35.592871
20.422139
4.667917
-10.622391
-24.785579
-38.358634
-51.931689
-65.799810
-79.962998
-92.945920
-104.453510
-115.370968
-128.058824
-141.336812
-155.204934
-164.647059
-175.269450
-189.432638
-205.661290
-218.939279
-227.496205
-234.282732
-245.200190
-255.822581
-264.084440
-270.575901
-277.952562
-283.263757
-290.935484
-297.722011
-301.852941
-302.738140
-305.098672
-305.983871
-305.098672
-304.213472
-305.688805
-306.278937
-303.623340
-301.852941
-300.082543
-298.607211
-293.000949
-289.755218
-284.444023
-277.067362
-271.756167
-263.789374
-253.757116
-245.790323
-233.987666
-223.660342
-212.152751
-199.169829
-186.777040
-170.843454
-156.385199
-143.107211
-128.058824
-110.059772
-93.536053
-77.897533
-61.963947
-48.095825
-30.981973
-14.753321
0.291745
15.170732
28.007505
42.303002
56.890244
69.727017
83.147280
95.400563
108.237336
119.031895
130.409944
144.997186
156.666979
168.336773
178.256098
194.593809
210.348030
221.726079
230.186679
238.939024
249.733583
259.069418
266.654784
276.282364
281.242026
289.410882
296.996248
302.539400
306.040338
305.748593
306.623827
310.708255
309.833021
308.374296
308.082552
309.833021
308.374296
304.873358
303.122889
301.372420
296.704503
293.787054
286.493433
281.242026
275.115385
265.487805
257.027205
248.274859
237.188555
226.685741
215.307692
201.887430
188.758912
172.712946
157.833959
144.413696
129.826454
112.030019
95.984053
78.771107
64.183865
49.013133
33.842402
16.921201
2.333959
-12.982922
-27.146110
-39.833966
-53.997154
-68.160342
-81.143264
-94.716319
-105.043643
-118.026565
-130.419355
-144.287476
-157.270398
-167.892789
-178.810247
-193.858634
-209.792220
-219.824478
-228.971537
-237.528463
-248.445920
-257.888046
-265.559772
-272.051233
-278.542694
-286.804554
-291.230550
-300.082543
-302.738140
-304.213472
-305.688805
-306.574004
-305.393738
-306.278937
-303.918406
-304.508539
-303.623340
-302.738140
-298.902277
-296.541746
-294.771347
-288.574953
-282.968691
-277.657495
-269.690702
-260.838710
-252.281784
-242.249526
-233.102467
-222.480076
-209.202087
-196.219165
-182.941176
-168.187856
-153.434535
-140.746679
-124.518027
-107.994307
-89.995256
-74.061670
-58.718216
-43.669829
-28.621442
-12.982922
2.625704
16.921201
32.091932
45.220450
58.932458
73.227955
84.897749
98.318011
109.112570
121.949343
134.494371
147.039400
160.459662
171.837711
182.048780
197.511257
212.390244
223.476548
232.520638
241.564728
250.900563
261.403377
268.988743
276.574109
283.575985
290.577861
297.287992
303.122889
306.623827
306.915572
308.666041
309.249531
309.541276
309.249531
308.374296
307.499062
308.082552
306.623827
302.539400
298.746717
298.163227
292.620075
287.952158
282.700750
273.948405
264.904315
255.568480
247.107880
237.188555
225.227017
213.557223
200.136961
186.133208
172.712946
157.250469
142.663227
128.075985
111.446529
94.817073
78.187617
63.308630
48.721388
32.675422
17.212946
1.166979
-12.687856
-25.965844
-41.899431
-55.767552
-68.455408
-82.028463
-94.421252
-105.043643
-118.026565
-130.124288
-143.402277
-155.500000
-166.417457
-178.515180
-193.858634
-209.202087
-219.529412
-228.971537
-237.233397
-249.036053
-257.888046
-266.444972
-272.346300
-280.608159
-286.804554
-291.525617
-297.131879
-303.328273
-302.148008
-305.098672
-304.213472
-305.098672
-304.803605
-305.688805
-304.803605
-302.148008
-300.967742
-300.377609
-295.951613
-291.820683
-287.099620
-282.083491
-274.116698
-269.100569
-260.838710
-250.806452
-242.249526
-231.627135
-221.594877
-207.726755
-194.448767
-182.055977
-168.187856
-154.024668
-139.566414
-124.813093
-106.223909
-89.110057
-73.176471
-57.537951
-43.374763
-26.260911
-10.327324
3.500938
18.963415
32.091932
47.262664
60.099437
73.227955
86.356473
98.318011
111.446529
122.532833
135.369606
147.622889
159.292683
169.795497
182.340525
198.386492
212.098499
224.060038
232.520638
242.148218
252.651032
261.695122
269.863977
277.449343
284.742964
290.577861
297.871482
302.539400
306.332083
305.748593
308.957786
310.708255
309.833021
309.249531
308.957786
308.374296
307.499062
306.040338
303.122889
300.497186
296.996248
291.744841
286.785178
280.075047
272.489681
263.737336
255.860225
245.940901
235.438086
224.643527
211.515009
198.678236
186.133208
170.087242
155.500000
142.663227
126.325516
109.696060
92.483114
76.728893
60.682927
47.846154
30.341463
14.878987
-0.295066
-14.753321
-28.621442
-41.899431
-57.242884
-70.225806
-82.323529
-95.601518
-107.994307
-119.796964
-131.894687
-145.467742
-157.565465
-167.892789
-179.695446
-195.333966
-209.497154
-219.824478
-230.151803
-239.298861
-250.511385
-257.592979
-266.149905
-272.641366
-280.313093
-286.509488
-294.771347
-298.607211
-300.377609
-304.803605
-304.803605
-305.098672
-305.098672
-306.278937
-306.574004
-304.803605
-301.557875
-300.672676
-299.492410
-295.951613
-291.230550
-285.624288
-283.558824
-275.296964
-266.740038
-258.773245
-248.445920
-241.069260
-230.446869
-218.054080
-206.251423
-191.793169
-179.105313
-165.237192
-150.483871
-135.730550
-120.977230
-103.273245
-85.274194
-70.815939
-54.882353
-41.014231
-23.900380
-8.261860
6.710131
22.172608
35.301126
49.596623
62.433396
76.145403
88.106942
101.818949
113.488743
125.450281
