57.505660
-9.672950
0.880189
104.742453
119.999057
137.896226
151.685849
162.541509
173.983962
189.827358
205.377358
217.113208
226.501887
236.477358
245.572642
256.134906
263.763208
270.217925
277.259434
284.887736
292.516038
298.383962
301.024528
302.198113
304.545283
308.359434
305.718868
305.718868
304.251887
301.024528
300.437736
299.850943
297.503774
296.036792
289.875472
284.300943
282.247170
271.391509
269.924528
257.308491
248.800000
235.303774
226.795283
214.472642
202.736792
188.360377
175.450943
156.380189
142.297170
128.214151
112.664151
93.593396
80.977358
63.960377
47.236792
28.166038
14.376415
2.347170
-15.535344
-25.501414
-43.088596
-53.347785
-72.400566
-79.728558
-96.143261
-106.988690
-117.247879
-127.507069
-142.456173
-155.353440
-173.526861
-173.526861
-184.372290
-197.562677
-216.029218
-231.564562
-229.805844
-239.185674
-248.565504
-262.928369
-265.859566
-273.480679
-279.049953
-288.722903
-292.826579
-295.171536
-302.792648
-301.033930
-301.620170
-306.016965
-309.534402
-311.000000
-306.016965
-306.603205
-302.206409
-298.688973
-300.447691
-296.344015
-290.188501
-289.602262
-278.756833
-277.877474
-270.842601
-262.049010
-249.737983
-245.048068
-234.495759
-223.064090
-209.873704
-197.855796
-184.665410
-169.423186
-155.646560
-143.921772
-124.575872
-106.988690
-90.867107
-78.849199
-63.313855
-49.830349
-31.656927
-15.535344
-2.051838
10.562264
27.285849
39.315094
52.811321
68.654717
79.510377
94.473585
105.622642
118.532075
131.148113
144.350943
159.020755
168.996226
179.265094
197.455660
210.951887
224.154717
230.609434
241.758491
252.320755
262.002830
267.283962
276.966038
283.420755
289.288679
295.743396
301.024528
305.132075
305.425472
306.305660
306.892453
309.239623
308.066038
307.185849
308.066038
306.012264
304.838679
300.731132
299.557547
295.743396
290.168868
281.953774
278.433019
268.164151
260.242453
252.907547
241.171698
231.196226
220.633962
207.431132
192.467925
178.971698
163.715094
148.751887
134.962264
116.771698
99.461321
82.737736
68.067925
52.224528
37.848113
21.417925
4.987736
-9.672950
-22.863336
-37.519321
-51.295947
-64.193214
-77.969840
-89.401508
-100.540057
-112.851084
-125.748351
-136.886899
-150.663525
-162.681433
-172.940622
-184.079171
-198.442036
-211.339303
-221.891612
-228.926484
-239.771913
-246.513666
-257.945335
-265.859566
-272.894439
-281.101791
-288.136664
-292.240339
-297.516494
-299.568332
-301.913289
-303.085768
-301.620170
-304.551367
-302.499529
-304.258247
-302.206409
-301.913289
-301.913289
-296.930254
-295.757776
-290.774741
-285.791706
-280.515551
-274.946277
-267.032045
-258.238454
-250.910462
-240.065033
-230.392083
-219.546654
-208.114986
-195.217719
-182.613572
-168.250707
-152.715363
-140.697455
-124.282752
-107.281810
-90.867107
-76.504241
-60.675778
-47.192271
-30.191329
-14.949105
-0.000000
13.496226
28.166038
41.075472
56.332075
68.361321
82.150943
94.180189
106.209434
118.532075
132.028302
144.350943
157.553774
169.289623
181.612264
197.749057
211.538679
221.220755
230.609434
242.051887
252.027358
260.242453
268.164151
274.618868
282.247170
290.462264
297.797170
301.904717
304.838679
307.772642
308.066038
308.359434
308.946226
308.652830
308.359434
306.599057
307.185849
303.371698
302.491509
299.264151
294.569811
290.462264
284.300943
278.433019
269.631132
262.589623
253.200943
243.812264
232.369811
220.047170
207.137736
193.934906
178.678302
163.128302
150.512264
136.135849
119.999057
100.928302
84.204717
68.948113
53.398113
39.608491
23.178302
7.334906
-7.327992
-21.690858
-35.760603
-48.657870
-63.020735
-75.918002
-88.815269
-99.953817
-111.971725
-124.868992
-137.180019
-149.491046
-161.508954
-171.768143
-182.906692
-198.442036
-210.166824
-221.891612
-228.047125
-238.599434
-248.272385
-256.772856
-265.273327
-271.135721
-279.049953
-284.619227
-291.067861
-298.395853
-299.275212
-302.792648
-302.792648
-303.672008
-303.378888
-304.258247
-303.378888
-301.913289
-300.740811
-298.982092
-298.102733
-294.292177
-291.067861
-286.084826
-278.756833
-274.066918
-265.859566
-257.359095
-248.565504
-240.944392
-231.271442
-217.494816
-206.356268
-194.924599
-180.854854
-166.198869
-152.715363
-138.645617
-121.937795
-104.643732
-90.573987
-74.745523
-59.210179
-43.674835
-28.432611
-12.017908
1.760377
15.256604
30.806604
44.009434
58.092453
71.588679
84.498113
97.994340
110.023585
120.585849
134.082075
146.991509
159.900943
169.583019
183.079245
198.335849
212.125472
223.274528
232.369811
242.051887
252.320755
263.176415
269.924528
277.552830
282.833962
290.755660
298.090566
302.491509
304.251887
308.066038
307.772642
307.772642
308.066038
308.066038
307.185849
307.479245
304.838679
303.078302
302.491509
300.144340
295.156604
288.995283
283.714151
277.846226
269.924528
261.122642
251.733962
242.638679
231.489623
220.633962
207.431132
193.054717
178.678302
163.715094
150.218868
136.429245
119.705660
101.808491
84.204717
68.654717
54.571698
37.848113
21.417925
5.574528
-7.914232
-21.690858
-36.346843
-49.830349
-63.313855
-77.090481
-89.401508
-102.298775
-114.609802
-125.748351
-137.473139
-150.077286
-162.095193
-172.647502
-184.958530
-201.080113
-212.511781
-222.184731
-230.098963
-238.306315
-249.151744
-257.945335
-264.687088
-271.721960
-279.929312
-286.671065
-292.240339
-295.757776
-299.861451
-302.792648
-304.258247
-304.551367
-303.965127
-304.258247
-303.378888
-303.085768
-301.033930
-300.154571
-296.344015
-292.533459
-291.067861
-284.326107
-280.515551
-273.480679
-265.859566
-257.065975
-247.979265
-239.478794
-230.098963
-217.787936
-206.942507
-192.286522
-179.975495
-164.733270
-150.077286
-136.886899
-122.230914
-103.471254
-88.522149
-73.573044
-57.451461
-44.847314
-27.260132
-10.845429
2.640566
17.016981
31.100000
45.476415
59.266038
73.055660
86.258491
98.874528
110.316981
122.639623
135.842453
148.458491
161.074528
170.756604
184.839623
200.389623
214.179245
225.034906
233.250000
243.812264
253.494340
263.469811
270.217925
275.792453
284.007547
291.342453
299.264151
303.371698
304.838679
306.305660
307.772642
307.772642
308.066038
308.066038
308.359434
306.012264
305.718868
301.611321
300.144340
298.677358
295.156604
288.995283
284.007547
277.259434
270.511321
262.589623
252.614151
242.932075
231.783019
220.340566
207.724528
193.934906
179.851887
163.421698
149.632075
134.668868
118.825472
101.221698
85.378302
69.241509
54.278302
40.195283
21.711321
7.334906
-7.621112
-21.397738
-36.053723
-48.950990
-63.606975
-75.624882
-87.935910
-101.126296
-112.851084
-125.455231
-137.766258
-149.784166
-162.095193
-171.475024
-186.131008
-199.907634
-212.804901
-221.891612
-229.219604
-241.530631
-248.858624
-258.238454
-265.273327
-271.428841
-279.636192
-286.377945
-293.412818
-298.982092
-299.568332
-301.620170
-301.913289
-303.378888
-303.085768
-303.378888
-304.551367
-301.913289
-299.861451
-299.861451
-297.809614
-295.464656
-290.188501
-283.739868
-279.049953
-274.066918
-264.100848
-255.600377
-248.565504
-239.185674
-228.633365
-217.201697
-205.183789
-192.286522
-177.630537
-163.853911
-149.784166
-137.180019
-120.179076
-102.885014
-86.177191
-70.934967
-56.572102
-41.036758
-24.622055
-9.966070
4.107547
18.777358
34.327358
46.356604
61.319811
73.349057
87.432075
98.287736
110.903774
123.226415
137.309434
149.925472
161.074528
171.930189
185.426415
200.976415
215.059434
225.328302
234.423585
244.692453
255.254717
263.763208
272.271698
276.966038
284.300943
291.635849
299.557547
302.491509
305.718868
307.479245
308.652830
308.359434
308.359434
308.652830
307.479245
306.599057
304.838679
303.665094
302.198113
301.024528
295.743396
290.462264
285.474528
277.552830
269.631132
261.709434
251.440566
243.225472
231.489623
220.340566
207.137736
194.521698
180.145283
164.888679
149.925472
135.549057
119.412264
101.808491
85.965094
70.708491
55.745283
40.195283
24.351887
7.334906
-6.155514
-21.104618
-36.933082
-48.071631
-62.434496
-75.331762
-88.522149
-100.246937
-111.971725
-124.575872
-136.886899
-149.784166
-161.508954
-169.423186
-183.492931
-198.735156
-209.873704
-221.305372
-229.805844
-240.651272
-249.444863
-258.238454
-263.807729
-273.187559
-279.343073
-286.377945
-292.533459
-297.516494
-299.861451
-301.033930
-303.378888
-303.672008
-301.620170
-303.378888
-302.792648
-301.620170
-300.740811
-299.568332
-296.050895
-292.533459
-288.722903
-284.032988
-278.170594
-271.135721
-264.980207
-254.721018
-248.272385
-237.720075
-226.874647
-216.908577
-203.425071
-191.700283
-176.751178
-161.802074
-148.611687
-134.835061
-117.834119
-100.833176
-85.297832
-69.176249
-54.520264
-39.864279
-22.277097
-8.793591
6.454717
19.657547
34.620755
48.997170
62.200000
75.402830
87.725472
99.461321
112.077358
124.400000
137.602830
150.218868
162.834906
173.103774
188.066981
204.497170
216.526415
226.795283
235.303774
246.452830
256.134906
265.230189
271.684906
277.552830
286.354717
293.102830
298.677358
303.371698
305.718868
307.772642
308.066038
308.652830
307.772642
308.946226
308.652830
307.479245
308.359434
304.838679
303.371698
298.677358
294.863208
289.582075
283.127358
279.313208
269.924528
261.416038
252.320755
241.758491
230.902830
220.927358
206.844340
192.761321
178.678302
164.008491
149.338679
135.549057
118.825472
101.221698
83.617925
68.948113
53.104717
39.021698
23.471698
5.574528
-7.327992
-22.277097
-36.346843
-49.537229
-64.193214
-76.797361
-90.573987
-101.712535
-113.144204
-125.162111
-137.180019
-151.249764
-162.388313
-171.181904
-185.544769
-201.373233
-213.098021
-223.357210
-231.271442
-241.237512
-250.617342
-259.410933
-264.687088
-271.721960
-279.636192
-287.257304
-291.947220
-296.930254
-298.688973
-301.620170
-301.620170
-301.327050
-304.551367
-301.913289
-304.258247
-301.913289
-298.395853
-298.395853
-296.344015
-293.412818
-288.722903
-281.981150
-277.291235
-271.428841
-263.514609
-254.721018
-245.634307
-236.547597
-227.167766
-214.270500
-202.545712
-189.941565
-175.578699
-160.629595
-147.732328
-132.783223
-117.247879
-99.660697
-82.952875
-68.003770
-53.347785
-38.398680
-21.983977
-7.621112
7.628302
22.884906
35.500943
49.583962
63.373585
77.163208
90.659434
102.688679
114.717925
125.866981
138.189623
150.512264
163.715094
173.690566
188.947170
203.910377
217.113208
227.088679
235.597170
246.452830
256.134906
265.523585
271.978302
278.726415
286.648113
292.516038
299.850943
303.958491
307.185849
306.599057
308.652830
309.239623
309.239623
308.946226
309.533019
307.772642
307.772642
304.545283
300.437736
300.144340
295.450000
290.755660
284.300943
277.552830
269.631132
261.709434
251.733962
242.051887
231.489623
219.460377
207.724528
193.641509
178.091509
163.421698
149.045283
135.255660
118.825472
101.515094
83.911321
69.534906
53.984906
39.021698
22.298113
6.748113
-7.621112
-21.690858
-35.760603
-49.537229
-62.141376
-76.211122
-89.108388
-99.953817
-111.971725
-125.162111
-138.352498
-150.077286
-162.388313
-171.475024
-184.372290
-201.080113
-211.632422
-223.064090
-231.271442
-240.651272
-250.617342
-258.531574
-265.566447
-272.015080
-278.170594
-287.843544
-293.412818
-297.809614
-298.982092
-302.206409
-302.792648
-302.499529
-301.620170
-303.378888
-301.913289
-302.499529
-300.740811
-296.050895
-295.757776
-293.119698
-288.429783
-283.739868
-277.584354
-270.842601
-262.635250
-255.014138
-245.341188
-236.254477
-226.288407
-215.442978
-202.838831
-189.648445
-174.992460
-160.336475
-146.852969
-133.369463
-115.782281
-98.488219
-82.952875
-68.590009
-51.882187
-37.519321
-21.983977
-5.276155
8.215094
21.417925
36.381132
50.170755
63.373585
77.456604
89.192453
101.808491
113.250943
126.453774
139.950000
151.392453
164.008491
174.277358
187.480189
203.616981
215.939623
227.088679
235.303774
246.746226
257.308491
264.643396
271.684906
279.606604
286.941509
294.569811
301.024528
303.371698
306.012264
308.066038
309.826415
310.413208
309.533019
311.000000
308.946226
308.652830
306.012264
304.545283
303.665094
300.144340
294.863208
289.582075
283.420755
278.139623
269.631132
260.535849
251.147170
241.171698
231.489623
219.166981
206.257547
193.054717
177.504717
162.248113
147.578302
135.842453
116.771698
100.048113
83.911321
67.774528
53.691509
37.261321
21.417925
5.574528
-8.500471
-21.983977
-36.053723
-50.709708
-64.486334
-75.624882
-89.401508
-101.419416
-113.144204
-126.041470
-138.352498
-150.077286
-163.267672
-172.647502
-185.837889
-201.959472
-213.098021
-224.236569
-232.150801
-240.651272
-250.617342
-260.290292
-267.618285
-273.773798
-281.688030
-288.136664
-294.292177
-298.688973
-299.568332
-301.913289
-303.085768
-304.258247
-303.085768
-302.206409
-300.740811
-301.327050
-299.568332
-299.568332
-296.637135
-292.826579
-288.136664
-282.567389
-277.291235
-270.842601
-262.928369
-253.841659
-243.875589
-235.668238
-225.702168
-214.563619
-202.838831
-188.182846
-174.406221
-159.750236
-146.266730
-132.490104
-115.196041
-98.781338
-82.659755
-67.124411
-52.761546
-36.346843
-20.225259
-3.517436
8.508491
22.591509
38.141509
51.050943
64.840566
78.043396
90.072642
102.688679
113.837736
126.747170
139.656604
151.685849
163.715094
173.983962
189.827358
205.377358
217.113208
226.795283
237.064151
246.746226
257.308491
265.523585
273.445283
280.486792
287.234906
296.330189
301.317925
306.599057
307.479245
307.772642
309.533019
309.533019
311.000000
308.359434
307.479245
306.599057
305.132075
303.958491
302.198113
299.850943
295.450000
290.462264
284.300943
276.966038
267.870755
259.655660
251.147170
239.998113
228.849057
219.460377
206.550943
192.174528
177.211321
161.661321
147.284906
133.788679
116.184906
99.167925
82.737736
68.654717
51.931132
37.554717
20.831132
4.987736
-9.672950
-22.277097
-36.933082
-49.830349
-65.072573
-77.383600
-90.867107
-102.298775
-114.316682
-126.920829
-139.818096
-151.836004
-163.853911
-172.354383
-187.596607
-202.252592
-214.856739
-223.357210
-232.150801
-242.996230
-250.910462
-260.290292
-266.445806
-273.187559
-280.222432
-289.016023
-294.292177
-298.982092
-301.620170
-301.327050
-303.965127
-304.844486
-301.620170
-303.378888
-302.206409
-301.620170
-299.275212
-298.102733
-296.050895
-291.947220
-286.964185
-282.274270
-275.825636
-268.790763
-261.755891
-254.721018
-245.048068
-235.668238
-223.650330
-212.511781
-201.080113
-185.544769
-173.233742
-157.698398
-144.214892
-131.610745
-112.557964
-95.850141
-80.607917
-65.365693
-50.123468
-35.174364
-18.173421
-2.638077
10.562264
24.351887
39.901887
53.104717
66.307547
78.923585
91.539623
104.449057
115.304717
128.507547
142.297170
154.619811
165.768868
176.624528
190.707547
206.844340
219.166981
227.968868
237.357547
248.506604
257.895283
265.816981
272.565094
280.486792
287.528302
295.156604
301.024528
304.838679
307.772642
307.479245
309.826415
308.359434
308.946226
308.946226
308.946226
308.652830
304.838679
305.425472
301.611321
298.383962
293.396226
288.115094
282.540566
276.379245
267.283962
258.775472
249.973585
240.291509
228.849057
217.700000
204.497170
191.000943
176.624528
161.367925
147.578302
132.908491
115.891509
98.581132
82.444340
66.894340
52.811321
35.500943
19.364151
4.107547
-10.845429
-24.915174
-38.984920
-50.709708
-64.779453
-78.556079
-91.160226
-104.057493
-114.023563
-128.093308
-140.111216
-151.836004
-163.560792
-173.526861
-187.596607
-204.011310
-215.149859
-224.529689
-232.150801
-242.996230
-251.203582
-259.410933
-267.325165
-273.480679
-281.394910
-288.136664
-294.292177
-298.982092
-301.327050
-301.913289
-302.206409
-303.672008
-304.258247
-303.378888
-302.206409
-299.861451
-299.568332
-296.050895
-294.585297
-291.947220
-287.550424
-282.567389
-277.291235
-270.842601
-262.049010
-251.789821
-244.461828
-234.788878
-223.650330
-212.804901
-199.028275
-186.424128
-171.475024
-156.525919
-144.508011
-128.679548
-111.971725
-94.677663
-78.262959
-63.606975
-49.244109
-34.001885
-16.707823
-2.344958
12.029245
26.405660
40.195283
53.984906
67.774528
80.683962
93.593396
105.916038
117.945283
128.214151
142.297170
154.326415
165.475472
176.037736
193.054717
207.724528
219.460377
229.142453
237.650943
248.213208
258.188679
266.990566
274.618868
279.900000
287.528302
295.743396
301.317925
304.251887
305.718868
308.359434
310.706604
310.413208
310.706604
308.652830
309.533019
306.599057
306.599057
303.078302
301.024528
298.677358
293.689623
289.288679
283.127358
276.085849
267.283962
258.775472
249.386792
239.998113
229.142453
217.700000
204.203774
189.827358
176.037736
159.607547
146.111321
132.615094
114.131132
97.994340
81.564151
66.600943
51.050943
36.674528
19.657547
4.694340
-10.259189
-23.156456
-37.519321
-49.830349
-65.072573
-77.969840
-90.573987
-102.885014
-113.144204
-126.627710
-139.231857
-151.249764
-162.974552
-173.233742
-187.303487
-203.425071
-214.270500
-224.529689
-232.443921
-243.289350
-250.617342
-260.290292
-267.032045
-273.480679
-281.101791
-289.309142
-293.705938
-296.637135
-298.688973
-303.085768
-302.499529
-302.499529
-303.085768
-302.792648
-299.861451
-300.740811
-296.637135
-297.223374
-294.292177
-290.774741
-286.964185
-280.222432
-274.653157
-269.083883
-260.876532
-251.789821
-242.116871
-232.737041
-222.477851
-211.632422
-199.028275
-184.665410
-171.475024
-155.646560
-142.456173
-128.386428
-111.092366
-94.677663
-78.262959
-64.193214
-48.657870
-33.415646
-17.587182
-1.758718
12.322642
26.992453
39.608491
54.571698
67.187736
80.390566
95.353774
105.622642
117.945283
129.387736
142.590566
155.206604
165.768868
176.624528
191.587736
208.017925
220.047170
227.968868
237.064151
248.213208
258.482075
266.403774
274.618868
281.366981
289.875472
295.743396
301.611321
304.251887
306.892453
306.892453
308.652830
309.239623
308.946226
309.239623
307.772642
307.772642
304.838679
303.078302
301.904717
297.797170
293.689623
288.701887
282.247170
274.912264
267.577358
258.188679
248.800000
239.117925
228.262264
216.819811
204.497170
188.653774
175.744340
159.020755
145.817925
131.734906
112.957547
97.407547
81.270755
66.014151
50.757547
34.620755
18.777358
3.814151
-11.138549
-23.742696
-37.812441
-52.468426
-65.072573
-80.021678
-92.918944
-103.764373
-115.489161
-128.386428
-140.111216
-154.180961
-164.147031
-176.164939
-190.527804
-204.890669
-215.736098
-224.822809
-234.495759
-243.289350
-252.376060
-261.462771
-268.497644
-274.066918
-283.153629
-289.309142
-293.999057
-297.223374
-301.033930
-301.620170
-303.965127
-302.792648
-303.378888
-301.913289
-302.499529
-299.568332
-298.982092
-297.223374
-294.292177
-291.654100
-286.671065
-281.394910
-274.946277
-269.670123
-260.876532
-251.203582
-241.823751
-233.030160
-223.064090
-211.632422
-198.442036
-185.251649
-171.768143
-155.939680
-142.749293
-127.507069
-110.213007
-92.039585
-78.262959
-63.313855
-48.657870
-31.070688
-16.414703
-0.879359
12.909434
26.992453
40.782075
54.278302
67.481132
81.270755
93.886792
106.502830
118.238679
130.267925
142.883962
155.206604
166.649057
178.384906
193.348113
208.898113
220.047170
228.555660
237.944340
248.213208
259.068868
266.990566
274.032075
279.900000
288.408491
296.330189
301.317925
303.665094
306.305660
307.772642
309.239623
308.946226
308.652830
309.533019
307.479245
307.479245
303.665094
303.958491
301.904717
297.503774
293.396226
287.528302
281.660377
274.325472
266.403774
258.188679
247.626415
238.237736
227.675472
215.939623
202.443396
188.653774
173.983962
159.314151
145.524528
130.561321
112.664151
95.353774
80.390566
65.133962
50.170755
34.327358
18.483962
1.760377
-11.724788
-25.794533
-38.984920
-53.347785
-65.951932
-80.021678
-93.212064
-104.057493
-115.489161
-128.093308
-140.404336
-154.180961
-164.733270
-174.406221
-190.527804
-205.183789
-216.615457
-225.409048
-233.909519
-243.289350
-253.548539
-261.169651
-268.790763
-275.239397
-282.274270
-289.602262
-293.412818
-297.809614
-301.033930
-301.033930
-303.378888
-303.965127
-304.258247
-301.913289
-302.206409
-300.154571
-299.861451
-296.344015
-295.464656
-291.654100
-287.843544
-281.688030
-274.653157
-269.083883
-260.290292
-251.203582
-242.703110
-231.564562
-221.891612
-210.459943
-197.855796
-184.958530
-170.302545
-155.939680
-140.990575
-126.920829
-109.626767
-93.505184
-76.797361
-61.848256
-46.899152
-30.484449
-15.242224
0.586792
15.256604
27.579245
41.368868
56.625472
68.654717
81.564151
94.180189
107.089623
118.238679
131.441509
143.764151
154.913208
166.062264
176.624528
193.934906
208.604717
221.220755
229.729245
238.531132
248.506604
258.775472
267.870755
274.325472
281.660377
289.582075
296.916981
301.904717
305.718868
306.892453
308.359434
310.413208
308.946226
308.946226
307.479245
308.652830
307.479245
306.012264
305.425472
300.731132
297.503774
293.102830
287.234906
281.073585
274.618868
266.990566
258.482075
248.800000
238.531132
226.795283
215.646226
202.150000
187.480189
173.397170
157.847170
144.644340
130.561321
111.783962
95.060377
79.216981
63.960377
49.290566
32.860377
17.897170
3.520755
-12.017908
-25.794533
-40.743638
-54.813384
-67.124411
-81.194156
-92.918944
-104.936852
-117.540999
-129.265787
-143.335533
-155.353440
-165.612630
-175.285580
-191.993402
-206.063148
-216.615457
-225.702168
-235.081998
-245.341188
-253.841659
-262.049010
-267.618285
-275.532516
-282.567389
-289.309142
-296.050895
-299.861451
-301.620170
-303.378888
-302.499529
-303.965127
-303.085768
-302.206409
-302.206409
-300.154571
-298.102733
-296.930254
-294.585297
-291.654100
-285.205467
-279.929312
-274.360038
-266.445806
-259.704053
-249.444863
-242.409991
-233.616400
-221.305372
-208.994345
-196.976437
-182.613572
-167.957587
-154.180961
-139.818096
-125.748351
-107.281810
-90.280867
-75.038643
-59.503299
-45.433553
-29.018850
-13.190386
0.880189
15.256604
29.926415
43.716038
57.505660
71.295283
83.911321
95.647170
108.556604
119.705660
133.201887
145.817925
158.433962
169.289623
180.438679
195.988679
210.071698
222.100943
230.902830
240.878302
250.560377
261.122642
267.577358
274.912264
282.247170
288.995283
296.036792
301.317925
304.251887
306.892453
308.066038
308.066038
310.119811
309.533019
310.119811
308.946226
307.185849
306.892453
302.784906
300.731132
298.383962
293.396226
287.821698
283.420755
274.325472
264.643396
256.134906
247.039623
238.237736
227.088679
215.059434
200.389623
187.773585
173.397170
157.553774
145.817925
129.681132
112.370755
94.766981
79.803774
63.960377
50.464151
33.153774
17.897170
2.347170
-12.017908
-24.622055
-38.984920
-53.640905
-67.417531
-79.728558
-92.625825
-105.229972
-115.782281
-128.386428
-141.576814
-153.301602
-164.440151
-175.871819
-191.407163
-207.235627
-217.201697
-225.702168
-234.495759
-245.341188
-253.548539
-262.342130
-269.377003
-274.360038
-284.032988
-289.895382
-293.999057
-297.223374
-301.620170
-301.913289
-302.206409
-304.258247
-301.913289
-302.499529
-302.499529
-298.982092
-299.568332
-296.344015
-293.999057
-291.067861
-285.205467
-280.808671
-274.946277
-269.083883
-259.704053
-250.617342
-241.530631
-231.857681
-220.719133
-209.287465
-195.217719
-182.027333
-167.664467
-153.301602
-139.524976
-125.162111
-106.695570
-90.867107
-74.745523
-60.382658
-45.433553
-29.018850
-13.190386
1.466981
15.550000
30.219811
43.422642
57.799057
70.708491
84.791509
95.060377
107.676415
119.412264
132.028302
146.111321
158.140566
168.116038
181.025472
194.815094
211.245283
222.100943
230.902830
240.291509
250.560377
261.122642
268.750943
275.205660
282.540566
289.288679
297.210377
303.078302
305.718868
307.772642
308.066038
309.533019
310.119811
308.066038
309.239623
307.772642
306.892453
305.718868
303.958491
301.904717
296.623585
292.516038
286.941509
280.193396
274.032075
265.523585
257.601887
247.333019
238.237736
225.915094
214.179245
202.443396
187.773585
171.930189
159.020755
143.764151
129.681132
111.197170
94.180189
78.630189
63.666981
48.116981
33.447170
16.430189
1.466981
-12.604147
-26.087653
-39.864279
-53.640905
-65.951932
-79.435438
-92.039585
-104.350613
-116.368520
-128.093308
-140.404336
-154.180961
-163.853911
-174.992460
-190.527804
-205.476909
-216.615457
-224.529689
-235.375118
-245.634307
-253.255419
-261.169651
-268.204524
-275.825636
-282.567389
-290.188501
-294.292177
-296.930254
-299.861451
-302.206409
-300.154571
-301.913289
-302.499529
-301.033930
-302.206409
-298.102733
-297.809614
-295.757776
-291.947220
-289.602262
-284.912347
-279.343073
-272.894439
-265.859566
-257.359095
-249.444863
-239.185674
-230.685203
-220.426013
-206.649387
-195.217719
-182.027333
-166.785108
-152.422243
-140.111216
-122.230914
-106.109331
-89.108388
-74.452403
-57.158341
-44.554194
-27.846371
-11.724788
3.227358
17.897170
31.980189
44.889623
60.146226
72.468868
85.965094
97.994340
108.850000
122.052830
134.962264
146.698113
160.487736
170.169811
181.612264
197.455660
211.832075
224.154717
230.902830
242.051887
253.200943
261.122642
269.044340
276.672642
283.714151
291.635849
298.677358
303.371698
305.718868
306.012264
308.359434
309.826415
308.946226
310.119811
308.359434
309.239623
306.012264
304.545283
303.371698
300.731132
298.090566
293.396226
287.528302
281.073585
273.445283
265.816981
257.015094
245.866038
236.183962
224.741509
214.472642
200.096226
186.600000
171.930189
156.673585
143.764151
127.920755
109.730189
93.006604
77.456604
62.200000
48.703774
30.513208
16.430189
-0.879359
-14.362865
-28.432611
-41.329877
-54.813384
-69.469369
-81.194156
-96.436381
-107.574929
-118.713478
-130.731385
-143.042413
-156.232799
-167.078228
-177.923657
-194.338360
-208.408106
-218.081056
-225.995287
-236.840716
-246.513666
-255.893497
-261.755891
-270.842601
-275.825636
-284.326107
-291.067861
-295.757776
-299.568332
-301.620170
-301.913289
-303.378888
-303.085768
-301.620170
-301.033930
-301.620170
-302.206409
-296.930254
-297.223374
-293.705938
-289.309142
-283.153629
-278.756833
-272.601320
-264.980207
-257.945335
-247.979265
-240.651272
-230.098963
-218.374175
-206.649387
-193.165881
-179.682375
-164.147031
-150.370405
-137.766258
-121.937795
-104.057493
-87.056550
-71.228087
-56.865221
-42.209237
-26.673893
-10.552309
4.107547
19.070755
32.273585
46.356604
58.972642
73.349057
85.671698
99.167925
110.610377
122.639623
134.962264
147.284906
159.314151
171.050000
184.546226
199.216038
213.592453
223.274528
232.956604
241.758491
251.440566
262.296226
270.511321
277.552830
284.007547
291.635849
298.970755
303.958491
306.892453
308.946226
310.119811
308.652830
310.119811
308.652830
309.533019
308.359434
308.359434
305.718868
303.078302
301.317925
297.503774
292.516038
285.767925
279.606604
272.858491
264.056604
256.428302
247.333019
235.890566
225.328302
213.005660
200.389623
185.719811
170.169811
156.673585
142.590566
127.333962
109.143396
91.539623
76.576415
61.026415
46.063208
29.926415
14.376415
-2.051838
-14.362865
-29.018850
-42.209237
-56.572102
-70.348728
-82.659755
-94.091423
-106.695570
-118.713478
-131.024505
-143.628652
-156.525919
-166.198869
-178.803016
-194.631480
-208.701225
-218.960415
-228.047125
-236.840716
-247.099906
-255.893497
-262.342130
-268.790763
-277.291235
-281.981150
-291.360980
-295.464656
-299.275212
-299.568332
-300.447691
-302.792648
-302.499529
-303.085768
-301.913289
-301.327050
-299.568332
-297.516494
-294.292177
-292.826579
-288.722903
-285.205467
-279.636192
-273.773798
-265.566447
-255.600377
-247.393025
-238.306315
-228.047125
-219.253534
-206.356268
-192.872762
-180.561734
-164.440151
-150.956645
-137.180019
-121.937795
-104.350613
-87.935910
-73.866164
-57.744581
-43.088596
-25.501414
-10.552309
3.520755
18.190566
32.273585
46.943396
60.439623
73.055660
86.258491
98.581132
110.023585
123.519811
134.082075
147.871698
160.194340
170.756604
182.492453
199.509434
212.125472
224.448113
233.250000
242.932075
252.907547
262.296226
269.924528
276.672642
283.714151
291.342453
298.383962
303.371698
306.012264
308.066038
308.946226
308.652830
309.239623
309.533019
309.826415
307.185849
307.185849
303.665094
303.958491
301.611321
298.090566
292.516038
285.767925
280.193396
272.565094
262.883019
254.374528
244.985849
235.010377
224.741509
212.125472
198.335849
186.013208
168.996226
154.326415
141.710377
124.106604
107.383019
91.833019
76.283019
61.026415
45.476415
29.046226
13.202830
-1.172479
-15.535344
-29.898209
-42.209237
-57.158341
-70.348728
-83.245994
-95.263902
-107.868049
-119.299717
-131.903864
-145.680490
-157.405278
-167.664467
-179.096136
-194.924599
-208.114986
-218.960415
-226.288407
-236.547597
-247.979265
-256.186616
-262.342130
-270.549482
-274.946277
-284.619227
-290.188501
-295.464656
-299.275212
-299.275212
-302.206409
-303.085768
-303.085768
-303.965127
-301.620170
-301.913289
-298.395853
-297.516494
-296.050895
-293.412818
-291.067861
-284.326107
-280.222432
-272.308200
-265.273327
-257.359095
-247.979265
-238.013195
-228.633365
-216.908577
-206.063148
-192.286522
-178.509896
-164.147031
-149.784166
-136.300660
-121.644675
-102.885014
-86.470311
-71.814326
-54.227144
-41.036758
-24.328935
-8.793591
5.867925
20.537736
35.207547
48.703774
61.026415
74.816038
87.725472
100.341509
112.664151
124.400000
137.016038
149.632075
161.954717
172.516981
185.133019
200.389623
213.592453
224.154717
233.543396
242.932075
253.787736
263.763208
270.511321
278.433019
285.181132
291.929245
299.557547
303.371698
305.425472
308.066038
309.239623
309.239623
311.000000
308.652830
308.946226
306.892453
307.479245
305.132075
302.198113
301.317925
297.503774
291.929245
287.528302
281.953774
273.151887
264.056604
255.254717
245.279245
235.597170
223.274528
212.125472
197.162264
183.372642
169.876415
154.913208
142.297170
125.866981
107.383019
91.246226
75.109434
60.733019
46.063208
29.046226
13.789623
-2.344958
-15.828464
-30.191329
-43.967955
-56.865221
-70.934967
-83.539114
-95.850141
-107.868049
-119.299717
-133.076343
-145.094251
-157.405278
-167.664467
-179.389255
-194.631480
-208.994345
-219.253534
-228.047125
-238.013195
-248.272385
-256.772856
-262.928369
-271.135721
-276.704995
-284.912347
-290.774741
-295.757776
-299.861451
-301.033930
-302.206409
-303.085768
-302.499529
-300.740811
-301.327050
-300.447691
-300.447691
-298.688973
-295.464656
-294.585297
-290.481621
-284.912347
-278.463713
-272.015080
-264.100848
-256.186616
-247.099906
-238.892554
-227.754006
-217.494816
-205.183789
-191.700283
-177.923657
-163.560792
-149.197926
-137.180019
-121.058435
-103.471254
-86.177191
-70.934967
-55.692743
-41.329877
-24.622055
-9.379830
5.867925
19.950943
35.794340
47.823585
60.439623
74.229245
87.138679
99.754717
110.610377
124.400000
135.549057
148.751887
161.367925
171.050000
184.252830
199.802830
213.592453
224.154717
232.369811
242.345283
252.907547
262.296226
269.924528
277.846226
284.300943
292.516038
298.677358
303.078302
306.599057
307.772642
308.946226
309.826415
309.239623
310.706604
308.359434
308.359434
305.718868
305.425472
302.784906
301.611321
297.797170
291.635849
286.648113
279.900000
271.978302
263.469811
254.667925
245.866038
234.716981
224.154717
213.005660
197.749057
183.666038
169.583019
154.033019
141.123585
124.693396
107.969811
90.366038
76.283019
60.146226
45.769811
29.926415
12.909434
-0.586239
-14.655985
-29.898209
-43.967955
-57.744581
-70.641847
-82.952875
-94.970782
-107.281810
-119.885957
-130.438266
-144.801131
-157.698398
-167.957587
-179.975495
-196.390198
-208.994345
-218.667295
-226.581527
-237.133836
-247.686145
-254.427898
-262.928369
-269.963242
-277.291235
-285.498586
-291.067861
-296.050895
-298.395853
-300.447691
-301.033930
-301.327050
-301.913289
-300.447691
-302.499529
-300.740811
-299.275212
-298.102733
-296.050895
-291.947220
-288.136664
-281.981150
-277.291235
-271.428841
-264.980207
-255.307257
-246.513666
-238.306315
-226.874647
-215.736098
-204.890669
-192.286522
-176.458058
-162.974552
-148.904807
-134.541942
-120.179076
-100.540057
-83.832234
-69.176249
-54.520264
-38.984920
-21.983977
-8.207352
7.041509
22.591509
35.207547
48.703774
63.373585
75.989623
88.899057
101.221698
112.370755
124.986792
137.309434
150.512264
162.834906
172.810377
186.306604
200.976415
214.766038
225.621698
234.423585
243.812264
255.548113
263.176415
271.978302
277.259434
284.887736
292.516038
300.144340
304.545283
306.599057
308.066038
309.239623
309.239623
308.652830
308.359434
308.946226
308.359434
306.599057
305.132075
304.251887
300.144340
295.450000
290.462264
285.474528
278.139623
269.924528
261.709434
253.494340
243.812264
232.369811
222.394340
210.658491
196.868868
182.199057
166.649057
152.859434
139.950000
122.933019
105.329245
90.659434
73.349057
58.972642
44.889623
26.992453
10.562264
-3.810556
-17.587182
-30.777568
-44.847314
-58.330820
-72.107446
-86.470311
-98.488219
-109.919887
-121.937795
-134.835061
-145.973610
-159.163996
-167.371348
-182.613572
-198.148916
-210.753063
-220.426013
-228.047125
-238.306315
-248.565504
-256.479736
-265.273327
-271.135721
-277.291235
-284.032988
-292.533459
-295.464656
-298.982092
-300.447691
-302.206409
-301.033930
-300.154571
-301.327050
-300.447691
-301.033930
-299.861451
-297.516494
-295.464656
-292.533459
-288.429783
-282.860509
-276.998115
-271.135721
-263.807729
-254.427898
-245.634307
-238.599434
-227.167766
-215.736098
-204.597549
-191.407163
-176.164939
-161.215834
-147.732328
-133.369463
-116.954760
-99.953817
-83.539114
-67.710650
-53.640905
-38.105561
-21.690858
-6.448633
7.921698
22.298113
35.794340
49.290566
63.666981
77.456604
89.485849
