269.202068
254.879699
146.731203
239.095865
226.819549
212.204887
195.544173
180.637218
165.145677
151.115602
136.793233
118.671053
100.841165
85.349624
69.858083
53.781955
38.582707
23.383459
8.184211
-7.989534
-22.784967
-36.396765
-49.416746
-63.916270
-79.007612
-89.660324
-102.088487
-113.628925
-125.761180
-138.189343
-150.913416
-162.749762
-175.177926
-189.085633
-202.401522
-216.605138
-226.961941
-235.839201
-243.532826
-251.226451
-262.470980
-270.756422
-279.041865
-282.296860
-294.133206
-296.204567
-299.163654
-306.265461
-306.265461
-308.336822
-307.449096
-308.336822
-308.632731
-306.561370
-305.377735
-301.826832
-305.081827
-303.898192
-298.867745
-294.133206
-288.510942
-282.592769
-277.266413
-265.134158
-256.552807
-250.930542
-240.277831
-226.074215
-218.084681
-204.176974
-192.044719
-176.361560
-163.637488
-148.250238
-134.342531
-119.843007
-100.904853
-84.629876
-67.171265
-53.855376
-37.284491
-22.193149
-6.805899
7.891917
21.921992
36.244361
49.397556
61.673872
76.580827
88.564850
99.379699
111.948308
124.809211
137.085526
150.238722
163.391917
173.037594
189.406015
204.312970
215.127820
227.111842
235.588346
247.864662
255.756579
261.602444
270.663534
277.678571
285.278195
293.462406
299.600564
303.400376
306.615602
306.907895
311.000000
310.415414
306.907895
307.784774
305.446429
304.861842
304.277256
303.400376
301.062030
299.600564
291.416353
287.324248
280.601504
275.632519
266.279135
259.264098
249.326128
240.265038
228.281015
217.173872
204.020677
189.698308
175.375940
159.007519
145.854323
131.531955
113.409774
96.164474
80.380639
64.012218
51.151316
33.321429
18.122180
2.338346
-12.132255
-25.448145
-39.651760
-54.151284
-66.875357
-80.191246
-92.323501
-103.863939
-115.700285
-129.903901
-142.036156
-154.760228
-167.188392
-176.953378
-191.748811
-208.319696
-218.084681
-229.625119
-237.022835
-246.491912
-256.552807
-263.950523
-271.052331
-278.745956
-286.143673
-293.837298
-299.459562
-305.673644
-307.153187
-309.520457
-308.336822
-308.040913
-309.224548
-309.520457
-307.449096
-306.857279
-303.602284
-303.898192
-302.418649
-298.275928
-293.837298
-287.031399
-281.705043
-274.899144
-266.909610
-258.624167
-250.338725
-240.277831
-229.625119
-218.676499
-206.840152
-192.044719
-177.249286
-163.933397
-148.842055
-135.822074
-117.179829
-100.313035
-83.446242
-68.354900
-53.559467
-37.284491
-23.080875
-7.101808
7.599624
21.629699
36.536654
47.936090
63.427632
75.411654
89.734023
100.841165
111.363722
124.809211
137.085526
150.531015
161.930451
173.329887
187.652256
203.436090
217.173872
225.358083
234.711466
243.480263
253.710526
262.771617
269.786654
277.093985
284.401316
292.000940
298.431391
302.231203
305.738722
306.031015
308.077068
308.077068
306.031015
309.538534
306.615602
305.154135
304.569549
300.769737
301.062030
297.554511
292.877820
286.447368
280.893797
275.632519
265.986842
258.387218
248.449248
238.511278
227.696429
218.050752
205.774436
189.990602
176.545113
161.053571
146.146617
131.824248
116.332707
97.625940
81.257519
66.350564
52.320489
34.782895
19.291353
4.968985
-10.948620
-24.856327
-39.355852
-53.559467
-65.691722
-79.895338
-92.619410
-103.568030
-116.883920
-129.312084
-140.556613
-153.280685
-166.300666
-176.657469
-189.381541
-205.656518
-217.492864
-228.441484
-235.543292
-247.083730
-255.369172
-262.470980
-271.644148
-277.266413
-286.143673
-291.470029
-298.867745
-304.194101
-306.265461
-306.561370
-308.040913
-309.520457
-310.112274
-307.745005
-308.632731
-307.745005
-304.785918
-303.602284
-302.418649
-297.980019
-293.245480
-287.623216
-281.409134
-276.082778
-267.797336
-258.624167
-249.746908
-240.573739
-230.216936
-217.492864
-205.952426
-190.861085
-175.769743
-162.453853
-147.954329
-133.158896
-117.475737
-99.425309
-82.854424
-67.171265
-52.375833
-36.396765
-20.713606
-5.326356
8.476504
24.260338
37.705827
50.274436
63.719925
77.750000
89.734023
102.594925
113.994361
125.978383
138.839286
151.992481
163.684211
173.914474
189.990602
204.605263
216.589286
227.111842
234.419173
245.234023
254.879699
262.479323
270.078947
278.263158
285.570489
293.462406
299.015977
302.231203
303.692669
307.200188
307.784774
308.077068
308.077068
307.492481
306.907895
306.323308
303.692669
302.815789
299.600564
297.262218
292.585526
287.324248
281.770677
273.586466
266.279135
258.094925
249.033835
239.095865
228.281015
217.466165
202.266917
189.406015
174.499060
159.299812
145.854323
130.655075
113.702068
97.041353
80.380639
65.473684
49.689850
33.613722
18.999060
3.507519
-11.540438
-25.152236
-39.651760
-53.559467
-67.467174
-80.191246
-92.619410
-104.751665
-116.883920
-129.312084
-142.332065
-154.464320
-166.300666
-176.657469
-190.861085
-205.952426
-218.676499
-228.441484
-236.431018
-245.604186
-255.665081
-263.358706
-270.164605
-279.337774
-285.551855
-292.357755
-299.459562
-304.785918
-307.153187
-306.265461
-309.520457
-308.928639
-308.928639
-308.040913
-308.336822
-306.265461
-306.265461
-303.306375
-302.418649
-297.980019
-292.949572
-287.623216
-282.000951
-274.899144
-266.909610
-258.920076
-249.450999
-239.094196
-229.329210
-217.196955
-205.952426
-189.973359
-176.657469
-161.862036
-149.137964
-135.230257
-115.996194
-99.129401
-83.742150
-66.875357
-52.967650
-36.100856
-19.825880
-4.734539
9.061090
23.091165
37.413534
50.274436
64.012218
76.580827
90.610902
101.133459
112.240602
125.978383
137.962406
151.407895
162.807331
173.329887
189.113722
204.312970
217.173872
227.111842
236.465226
245.526316
254.879699
261.310150
270.371241
278.847744
284.693609
292.293233
298.139098
303.400376
305.446429
306.031015
307.200188
307.492481
307.784774
308.369361
305.446429
306.031015
303.984962
302.231203
299.600564
297.262218
292.000940
287.031955
281.186090
276.217105
265.986842
257.510338
249.326128
239.095865
228.281015
216.881579
203.728383
189.406015
174.206767
159.592105
145.562030
132.116541
114.578947
97.041353
81.257519
65.765977
48.812970
34.198308
16.953008
1.753759
-12.428164
-26.335871
-40.835395
-53.559467
-67.171265
-80.487155
-92.323501
-105.343482
-118.067555
-130.199810
-142.627973
-155.647954
-167.484301
-177.841104
-192.044719
-207.727878
-218.972407
-229.329210
-238.798287
-247.083730
-256.256898
-263.062797
-271.348240
-278.745956
-286.735490
-293.837298
-299.163654
-303.602284
-306.561370
-307.153187
-308.040913
-311.000000
-310.112274
-308.632731
-308.928639
-308.040913
-306.265461
-303.898192
-301.235014
-297.684110
-292.357755
-287.919125
-281.705043
-274.307326
-266.021884
-258.624167
-250.338725
-239.390105
-229.625119
-216.901047
-205.064700
-189.677450
-175.473834
-160.974310
-147.362512
-132.271170
-114.516651
-97.353949
-81.966698
-66.875357
-50.008563
-34.325404
-18.642245
-3.254995
10.230263
24.844925
37.998120
52.612782
65.473684
78.042293
91.195489
103.764098
115.163534
127.147556
140.008459
152.284774
165.145677
175.375940
190.575188
205.482143
219.219925
227.111842
234.711466
245.818609
254.295113
263.648496
271.248120
278.263158
287.031955
292.000940
300.185150
303.400376
305.446429
305.738722
307.784774
308.661654
308.077068
308.369361
308.077068
306.907895
304.569549
303.108083
301.062030
296.969925
292.585526
287.616541
282.062970
275.047932
266.279135
258.679511
248.156955
238.803571
228.281015
215.712406
203.143797
189.698308
175.960526
160.176692
146.146617
131.531955
113.702068
97.041353
80.672932
65.765977
51.735902
35.075188
19.291353
3.799812
-10.652712
-25.152236
-38.468126
-52.375833
-65.395814
-79.303520
-92.619410
-104.159848
-116.883920
-127.832540
-140.852521
-154.464320
-164.525214
-176.953378
-191.452902
-207.431970
-218.084681
-229.033302
-236.431018
-247.675547
-255.369172
-263.358706
-269.572788
-279.041865
-286.735490
-294.429115
-298.867745
-304.194101
-306.857279
-307.449096
-308.928639
-308.336822
-309.520457
-307.745005
-306.857279
-306.857279
-305.081827
-303.306375
-300.051380
-296.796384
-292.061846
-288.215033
-281.705043
-273.419600
-266.613701
-257.144624
-247.971456
-239.981922
-227.553758
-218.084681
-203.881066
-190.269267
-176.361560
-161.270219
-147.954329
-134.046622
-116.588011
-98.833492
-82.262607
-68.058991
-51.192198
-36.100856
-19.234063
-2.959087
10.814850
24.844925
38.290414
52.028195
64.889098
78.334586
90.610902
102.594925
113.409774
125.978383
139.423872
151.700188
164.268797
174.499060
189.698308
205.482143
217.758459
227.111842
236.465226
245.526316
255.464286
263.356203
270.371241
277.386278
284.985902
293.462406
298.723684
303.984962
305.154135
306.323308
308.661654
307.784774
308.369361
307.784774
306.031015
306.615602
304.277256
303.108083
300.477444
297.846805
293.170113
287.324248
281.478383
274.755639
266.279135
258.679511
249.326128
239.680451
228.281015
216.881579
204.312970
189.406015
175.668233
159.299812
146.438910
132.408835
114.286654
97.041353
80.088346
64.596805
49.982143
35.659774
18.999060
4.092105
-10.948620
-24.560419
-40.539486
-53.559467
-65.987631
-79.303520
-92.027593
-104.455756
-115.404377
-129.016175
-141.444339
-153.280685
-166.300666
-176.657469
-191.156993
-206.840152
-219.268316
-228.145576
-238.206470
-245.308278
-255.369172
-264.246432
-270.164605
-279.041865
-286.735490
-292.357755
-299.459562
-303.010466
-306.265461
-306.561370
-307.153187
-308.040913
-308.632731
-307.153187
-307.449096
-306.561370
-304.785918
-303.010466
-300.051380
-296.500476
-291.470029
-287.327307
-280.225500
-274.899144
-266.317793
-256.552807
-249.450999
-238.502379
-228.441484
-215.421503
-203.585157
-188.493815
-175.177926
-159.790676
-146.178877
-130.495718
-113.333016
-96.466223
-80.487155
-64.508088
-49.120837
-33.437678
-17.754520
-3.846813
12.276316
26.890977
40.628759
53.489662
66.935150
79.211466
91.780075
104.933271
116.332707
128.316729
142.346805
154.915414
164.853383
176.837406
191.159774
207.528195
219.512218
228.573308
236.757519
247.280075
255.171992
263.356203
271.248120
277.970865
285.862782
295.216165
299.308271
304.861842
306.031015
307.200188
308.953947
308.369361
308.077068
308.661654
308.077068
307.200188
304.861842
302.815789
299.892857
297.554511
293.462406
288.201128
282.647556
275.340226
266.279135
257.510338
248.156955
238.511278
227.111842
216.589286
203.436090
190.575188
175.668233
160.176692
146.731203
132.701128
114.578947
97.625940
80.672932
66.058271
51.735902
34.782895
19.291353
3.507519
-11.244529
-24.560419
-38.764034
-52.967650
-66.579448
-79.895338
-92.619410
-103.272122
-116.588011
-127.240723
-141.444339
-154.760228
-166.004757
-177.249286
-190.565176
-206.840152
-218.380590
-227.849667
-238.206470
-246.787821
-256.256898
-264.246432
-271.940057
-277.858230
-286.439581
-293.541389
-299.755471
-303.306375
-305.377735
-306.857279
-308.336822
-308.336822
-308.040913
-307.153187
-308.040913
-306.561370
-303.898192
-301.826832
-300.051380
-296.796384
-290.878211
-286.439581
-280.225500
-273.123692
-266.021884
-256.552807
-247.379638
-237.614653
-227.257850
-216.309229
-202.697431
-190.565176
-173.698382
-160.086584
-145.882969
-132.271170
-113.628925
-96.466223
-79.599429
-64.508088
-49.416746
-34.029496
-18.050428
-3.846813
11.691729
25.137218
40.044173
52.612782
66.642857
78.919173
90.903195
102.302632
113.702068
128.901316
140.300752
153.161654
165.437970
175.668233
191.159774
206.651316
219.219925
228.281015
237.342105
246.403195
256.925752
264.233083
270.078947
280.016917
288.201128
293.170113
299.600564
303.400376
304.861842
307.492481
308.953947
307.784774
309.246241
308.369361
308.369361
307.784774
306.031015
303.400376
301.938910
297.262218
292.877820
286.739662
282.355263
274.755639
265.986842
258.387218
249.326128
238.803571
226.819549
216.881579
203.436090
189.698308
175.960526
159.884398
147.023496
130.947368
115.163534
97.625940
81.549812
66.935150
50.566729
33.613722
19.583647
3.799812
-9.764986
-24.856327
-38.764034
-52.967650
-65.691722
-79.599429
-91.139867
-103.568030
-115.108468
-129.312084
-140.852521
-154.464320
-166.596575
-176.361560
-191.452902
-208.319696
-218.084681
-228.145576
-237.614653
-246.787821
-254.777355
-263.358706
-271.052331
-281.705043
-285.847764
-290.286394
-298.571836
-302.418649
-304.785918
-307.745005
-307.449096
-308.632731
-308.336822
-307.745005
-305.969553
-305.081827
-303.898192
-301.530923
-301.235014
-296.204567
-290.286394
-286.143673
-280.225500
-273.419600
-263.950523
-256.848716
-246.787821
-237.318744
-226.961941
-214.829686
-202.401522
-188.493815
-173.402474
-159.198858
-145.291151
-131.975262
-112.149382
-96.170314
-80.191246
-64.803996
-48.824929
-32.254044
-17.754520
-1.183635
13.153195
26.890977
42.090226
54.074248
66.935150
80.380639
92.656955
104.056391
116.332707
128.901316
142.931391
154.330827
164.561090
176.252820
192.036654
206.651316
219.512218
228.573308
238.218985
247.572368
255.756579
264.817669
274.463346
280.016917
286.739662
296.385338
300.185150
304.277256
306.323308
306.907895
309.538534
308.369361
309.246241
307.784774
307.784774
306.323308
304.569549
304.277256
299.600564
297.846805
293.170113
287.031955
282.647556
275.340226
265.986842
258.094925
249.033835
238.511278
227.696429
215.420113
202.559211
189.406015
175.083647
158.130639
145.854323
131.824248
113.409774
96.456767
80.088346
64.304511
49.982143
33.029135
17.829887
2.046053
-11.244529
-25.448145
-39.947669
-54.447193
-65.987631
-79.895338
-93.211227
-105.343482
-117.475737
-129.607992
-142.627973
-155.056137
-166.596575
-177.545195
-193.228354
-208.023787
-219.860133
-227.849667
-237.614653
-245.604186
-255.369172
-263.358706
-271.348240
-278.450048
-286.439581
-293.245480
-300.643197
-302.714558
-306.561370
-307.153187
-307.153187
-308.928639
-307.745005
-308.632731
-307.153187
-305.377735
-304.194101
-302.714558
-299.755471
-295.316841
-290.878211
-286.439581
-281.705043
-273.715509
-265.430067
-256.552807
-247.675547
-237.318744
-226.961941
-214.237869
-202.105614
-186.422455
-173.402474
-159.790676
-144.995243
-129.312084
-113.037108
-92.323501
-77.823977
-62.436727
-48.529020
-32.254044
-16.570885
-0.591817
13.737782
27.767857
41.213346
55.243421
67.519737
81.842105
93.241541
104.933271
116.917293
129.778195
142.346805
154.623120
166.314850
177.714286
192.036654
208.697368
219.804511
229.157895
239.095865
247.572368
256.925752
264.817669
273.001880
279.432331
288.201128
295.508459
300.477444
305.446429
306.615602
307.492481
308.369361
308.953947
308.369361
308.661654
308.077068
306.323308
306.323308
303.108083
301.646617
297.846805
292.293233
287.908835
281.186090
276.801692
266.279135
257.510338
248.741541
238.511278
227.988722
216.881579
203.436090
188.529135
174.206767
160.468985
144.685150
131.239662
114.578947
97.918233
80.380639
65.473684
51.151316
35.075188
18.706767
3.507519
-11.836346
-25.152236
-39.651760
-51.192198
-65.691722
-79.895338
-92.323501
-105.047574
-117.179829
-129.016175
-140.852521
-154.464320
-166.004757
-177.249286
-192.636537
-207.136061
-218.676499
-229.329210
-238.502379
-247.971456
-256.256898
-263.950523
-271.644148
-277.858230
-286.439581
-293.245480
-298.867745
-303.602284
-304.194101
-306.857279
-308.040913
-307.449096
-308.632731
-308.336822
-307.449096
-306.561370
-303.602284
-301.826832
-300.051380
-296.796384
-291.174120
-285.551855
-279.633682
-272.827783
-263.654615
-253.889629
-247.675547
-236.431018
-226.370124
-214.829686
-200.034253
-188.493815
-172.218839
-157.423406
-145.291151
-129.016175
-113.037108
-94.690771
-79.007612
-64.212179
-48.824929
-32.254044
-15.683159
-1.479543
13.445489
28.352444
41.213346
54.951128
68.688910
80.672932
92.949248
106.687030
116.917293
130.362782
142.346805
155.500000
165.730263
177.421992
192.328947
208.112782
220.096805
229.742481
239.388158
246.987782
258.094925
265.109962
272.709586
280.016917
287.324248
295.216165
299.892857
304.569549
306.907895
308.953947
308.953947
309.538534
309.246241
308.661654
309.830827
307.784774
304.861842
303.984962
301.354323
297.554511
292.877820
287.616541
281.478383
274.463346
266.571429
258.387218
247.864662
238.803571
227.988722
216.881579
204.312970
188.821429
174.206767
159.299812
144.685150
131.824248
112.825188
96.164474
78.919173
63.427632
49.397556
33.906015
17.537594
2.630639
-11.540438
-24.560419
-40.539486
-54.447193
-67.763083
-80.487155
-92.915319
-105.343482
-117.179829
-131.383444
-142.923882
-155.056137
-167.484301
-178.432921
-192.044719
-209.207422
-218.676499
-229.329210
-239.094196
-248.859182
-255.073264
-263.358706
-271.940057
-278.450048
-285.255947
-293.541389
-299.755471
-303.010466
-305.377735
-306.561370
-307.745005
-307.153187
-308.040913
-308.632731
-306.561370
-305.969553
-303.898192
-302.122740
-300.051380
-295.316841
-291.470029
-284.664129
-280.225500
-274.011418
-265.134158
-256.552807
-246.787821
-237.022835
-225.186489
-213.646051
-202.105614
-188.493815
-173.106565
-157.423406
-145.587060
-129.607992
-111.261656
-93.507136
-78.119886
-63.324453
-48.824929
-32.845861
-16.274976
-0.295909
13.737782
27.475564
41.797932
54.366541
68.688910
81.842105
95.287594
104.933271
116.917293
130.362782
142.931391
154.915414
166.314850
177.129699
192.913534
208.697368
220.096805
230.034774
237.926692
248.156955
256.633459
265.402256
273.878759
279.724624
288.201128
295.508459
301.646617
303.984962
306.615602
307.784774
308.661654
308.369361
308.661654
308.661654
307.784774
306.615602
305.154135
303.108083
301.062030
298.139098
292.585526
288.201128
280.893797
274.755639
266.279135
256.633459
248.156955
237.926692
226.234962
215.712406
204.020677
187.944549
173.329887
159.592105
144.977444
130.362782
112.532895
95.579887
80.088346
64.304511
49.397556
33.029135
18.706767
2.338346
-12.132255
-27.519505
-41.131304
-54.151284
-67.763083
-82.262607
-94.394862
-106.527117
-118.659372
-130.199810
-143.219791
-156.239772
-167.484301
-179.024738
-193.228354
-208.615604
-220.451951
-228.441484
-239.686013
-246.491912
-256.848716
-263.062797
-270.460514
-279.633682
-286.143673
-293.245480
-299.755471
-301.826832
-306.561370
-305.377735
-306.857279
-308.040913
-307.745005
-307.449096
-306.857279
-305.377735
-303.898192
-301.530923
-299.755471
-295.612750
-291.470029
-285.551855
-279.929591
-272.531874
-264.838249
-254.777355
-247.675547
-236.726927
-225.778306
-214.237869
-200.330162
-188.197907
-172.514748
-158.015224
-144.403425
-129.607992
-113.037108
-93.507136
-77.528069
-63.028544
-49.120837
-30.774500
-15.683159
-0.887726
13.445489
27.767857
40.628759
54.366541
66.935150
80.380639
93.241541
104.933271
116.332707
129.485902
142.639098
155.207707
166.022556
177.421992
192.328947
207.820489
220.096805
229.450188
239.095865
247.572368
257.510338
265.986842
273.586466
280.601504
288.201128
295.800752
300.769737
304.277256
306.323308
308.953947
308.661654
309.246241
309.830827
309.538534
308.953947
307.200188
304.861842
302.815789
301.646617
298.139098
293.462406
287.324248
281.478383
274.463346
265.694549
257.218045
249.033835
238.511278
227.404135
216.296992
203.436090
189.113722
173.329887
159.007519
146.146617
130.947368
112.532895
95.287594
80.672932
65.181391
50.274436
34.490602
18.122180
3.799812
-11.244529
-26.631779
-39.651760
-52.375833
-65.987631
-79.007612
-91.731684
-103.863939
-117.179829
-129.903901
-141.740247
-155.056137
-165.708849
-177.249286
-192.340628
-207.136061
-220.747859
-228.441484
-237.022835
-245.308278
-255.369172
-264.246432
-272.235966
-277.858230
-285.847764
-292.061846
-300.347288
-304.785918
-305.377735
-306.265461
-307.745005
-307.153187
-306.857279
-306.265461
-306.561370
-304.785918
-304.490010
-301.235014
-300.051380
-295.020932
-291.470029
-285.255947
-279.337774
-271.348240
-263.654615
-254.777355
-247.083730
-236.431018
-225.482398
-213.646051
-200.626070
-187.606089
-170.147479
-156.239772
-144.403425
-127.240723
-111.557564
-92.619410
-76.936251
-61.253092
-46.457659
-28.407231
-14.795433
0.584586
15.491541
30.690789
44.428571
56.412594
70.442669
82.426692
95.287594
106.102444
118.378759
130.947368
144.392857
156.084586
167.484023
178.883459
193.498120
209.281955
221.265977
230.327068
240.265038
250.203008
257.802632
266.279135
273.001880
281.478383
289.370301
295.508459
301.062030
305.738722
307.200188
308.661654
308.077068
309.246241
308.953947
309.538534
309.246241
307.492481
305.154135
303.108083
301.062030
298.139098
292.585526
287.031955
281.186090
274.463346
265.986842
257.802632
247.280075
238.803571
227.404135
216.296992
201.974624
187.944549
173.037594
158.130639
143.808271
130.070489
111.948308
94.703008
80.088346
63.719925
49.105263
33.029135
17.829887
3.215226
-10.948620
-26.927688
-42.019029
-54.743102
-68.058991
-81.966698
-94.986679
-105.047574
-116.588011
-129.607992
-143.811608
-155.647954
-167.188392
-179.616556
-193.228354
-209.503330
-218.972407
-229.625119
-239.390105
-248.267364
-256.552807
-265.134158
-270.460514
-279.041865
-287.031399
-293.837298
-300.347288
-303.010466
-305.377735
-307.449096
-308.632731
-308.040913
-306.561370
-307.745005
-307.153187
-305.673644
-304.194101
-301.530923
-299.163654
-294.429115
-290.878211
-286.143673
-279.041865
-272.827783
-264.838249
-255.073264
-246.196004
-235.839201
-225.186489
-212.758325
-200.034253
-186.422455
-170.443387
-156.239772
-142.627973
-126.352997
-110.373930
-91.435775
-75.752617
-61.253092
-45.865842
-30.182683
-12.724072
1.169173
14.322368
28.644737
43.843985
56.412594
70.734962
82.718985
95.287594
106.102444
120.132519
132.408835
144.685150
156.669173
168.653195
180.052632
194.082707
210.158835
221.265977
230.327068
239.972744
249.910714
258.094925
265.694549
273.001880
282.062970
288.785714
296.093045
301.646617
304.569549
306.907895
309.246241
309.538534
309.830827
310.123120
309.246241
309.246241
306.615602
305.738722
303.692669
301.062030
296.677632
292.877820
287.031955
281.770677
274.463346
267.156015
257.218045
248.156955
237.634398
227.988722
215.127820
202.559211
189.406015
173.329887
158.422932
144.685150
129.193609
112.240602
96.164474
79.503759
64.596805
49.105263
31.567669
17.245301
1.461466
-13.611798
-27.519505
-41.131304
-53.559467
-67.763083
-80.783064
-94.394862
-105.935300
-117.771646
-131.087536
-142.923882
-155.352046
-167.484301
-179.024738
-193.228354
-210.391056
-218.972407
-229.329210
-238.206470
-248.859182
-256.552807
-263.654615
-272.235966
-279.929591
-286.735490
-293.837298
-299.755471
-303.306375
-306.265461
-307.449096
-307.449096
-307.745005
-306.857279
-307.153187
-306.561370
-306.265461
-303.010466
-301.826832
-300.347288
-295.612750
-290.582303
-284.072312
-277.858230
-272.531874
-263.654615
-255.369172
-246.196004
-234.951475
-224.890580
-211.870599
-198.258801
-185.830637
-171.627022
-156.239772
-144.107517
-128.720266
-110.669838
-92.619410
-76.344434
-61.253092
-45.865842
-29.590866
-13.611798
1.461466
14.322368
29.229323
44.136278
57.289474
70.442669
82.718985
95.872180
105.225564
118.086466
129.485902
144.392857
155.207707
167.484023
180.052632
194.667293
208.405075
220.973684
230.327068
239.095865
249.326128
258.679511
265.694549
273.586466
280.893797
289.370301
296.385338
299.892857
305.446429
306.615602
308.077068
308.953947
309.538534
309.538534
308.953947
308.661654
307.200188
305.446429
303.692669
300.477444
297.846805
292.293233
286.739662
281.186090
275.047932
265.402256
257.510338
249.033835
237.342105
226.527256
215.420113
202.266917
189.113722
173.914474
158.715226
146.438910
130.655075
113.702068
96.164474
80.088346
63.427632
50.274436
34.490602
18.414474
3.215226
-12.724072
-26.039962
-41.131304
-54.151284
-67.763083
-81.670790
-92.619410
-105.047574
-117.475737
-128.720266
-142.627973
-154.168411
-166.004757
-177.545195
-192.636537
-208.023787
-218.972407
-228.737393
-238.502379
-247.675547
-256.256898
-262.175071
-269.276879
-279.041865
-285.551855
-292.653663
-299.459562
-302.714558
-303.602284
-305.969553
-307.449096
-307.153187
-306.857279
-307.153187
-305.673644
-305.377735
-304.194101
-301.235014
-297.980019
-294.133206
-289.694577
-284.368221
-278.450048
-272.235966
-263.950523
-254.777355
-245.604186
-235.839201
-224.594672
-211.574691
-197.962892
-182.871551
-169.555661
-155.352046
-140.260704
-127.240723
-108.302569
-89.660324
-74.864891
-60.957184
-45.865842
-26.927688
-12.132255
1.461466
16.660714
29.813910
44.428571
58.458647
70.150376
84.180451
95.579887
109.025376
119.547932
132.408835
146.146617
158.130639
168.360902
180.637218
195.544173
210.158835
221.265977
231.203947
239.680451
250.203008
258.971805
267.156015
274.755639
281.186090
290.247180
296.093045
301.354323
305.446429
306.031015
308.369361
309.538534
310.415414
309.246241
308.369361
308.077068
307.784774
305.446429
304.569549
301.354323
297.846805
293.462406
287.031955
279.724624
274.755639
265.986842
257.510338
247.864662
238.218985
226.819549
215.127820
202.559211
187.944549
172.453008
157.546053
145.854323
128.901316
111.656015
94.995301
77.165414
63.427632
47.643797
31.859962
16.368421
-0.000000
-13.019981
-28.407231
-42.314938
-55.926736
-68.650809
-82.262607
-94.690771
-107.118934
-117.771646
-131.383444
-144.107517
-158.311132
-167.188392
-179.616556
-195.299715
-209.799239
-220.747859
-229.329210
-239.981922
-247.379638
-257.440533
-263.950523
-271.940057
-281.113225
-286.735490
-294.429115
-299.755471
-302.418649
-305.377735
-305.673644
-305.673644
-306.857279
-306.561370
-307.745005
-306.265461
-304.490010
-303.898192
-301.530923
-298.867745
-295.612750
-289.398668
-284.072312
-278.154139
-271.348240
-264.246432
-253.001903
-245.308278
-235.247383
-224.298763
-210.686965
-197.371075
-184.351094
-169.259753
-155.943863
-141.740247
-126.352997
-107.710752
-89.956232
-74.864891
-58.589914
-44.682207
-28.703140
-11.540438
2.046053
16.076128
31.567669
45.305451
57.874060
71.904135
83.595865
97.041353
108.440789
121.009398
134.162594
146.731203
158.130639
169.822368
181.514098
196.421053
212.204887
223.604323
231.203947
241.141917
251.956767
258.971805
266.571429
273.586466
280.893797
290.831767
295.800752
301.354323
305.738722
307.784774
309.830827
308.953947
308.661654
309.538534
309.246241
308.369361
306.907895
306.031015
303.400376
300.769737
297.846805
292.877820
287.616541
282.062970
274.171053
265.109962
256.925752
248.156955
237.926692
227.111842
214.543233
201.974624
188.236842
172.745301
157.546053
145.269737
128.316729
111.363722
94.703008
78.919173
63.135338
48.520677
33.906015
18.122180
1.753759
-12.132255
-27.223597
-42.019029
-53.559467
-68.058991
-79.303520
-93.803045
-105.639391
-117.475737
-129.903901
-142.627973
-156.239772
-166.892483
-179.320647
-195.299715
-208.911513
-220.156042
-229.033302
-239.981922
-247.971456
-256.848716
-263.654615
-271.052331
-278.745956
-287.327307
-294.133206
-299.459562
-302.122740
-303.898192
-306.857279
-305.969553
-307.449096
-307.449096
-306.561370
-305.673644
-304.194101
-303.010466
-301.826832
-298.275928
-294.133206
-290.582303
-284.072312
-277.858230
-271.348240
-261.879163
-253.593720
-244.124643
-234.359657
-223.706946
-211.278782
-198.258801
-184.055186
-167.780209
-155.352046
-140.852521
-126.057088
-108.302569
-91.731684
-75.160799
-59.773549
-44.090390
-28.111323
-11.244529
2.338346
16.076128
30.398496
45.013158
58.166353
72.196429
83.595865
95.872180
109.025376
119.547932
132.993421
145.854323
157.838346
168.653195
181.221805
195.251880
211.328008
223.019737
231.788534
242.311090
250.495301
259.848684
265.402256
274.755639
282.062970
290.247180
296.385338
302.231203
304.569549
306.323308
308.369361
309.246241
311.000000
309.538534
308.953947
309.246241
307.200188
305.446429
303.984962
301.646617
298.139098
293.754699
287.324248
281.186090
274.463346
265.109962
256.925752
246.403195
237.634398
225.650376
214.250940
202.266917
187.359962
172.745301
156.961466
143.808271
130.070489
110.779135
93.826128
79.211466
62.550752
48.228383
32.152256
15.199248
0.584586
-14.203616
-28.111323
-42.314938
-55.926736
-68.946717
-81.374881
-95.282588
-105.639391
-119.251189
-130.495718
-144.403425
-157.719315
-168.667935
-181.687916
-195.595623
-210.686965
-220.156042
-229.921028
-239.390105
-248.859182
-257.144624
-263.062797
-271.348240
-279.337774
-286.735490
-293.541389
-300.347288
-303.010466
-304.490010
-306.561370
-307.745005
-306.857279
-307.449096
-307.153187
-306.561370
-305.081827
-302.714558
-300.347288
-297.388202
-294.725024
-289.102759
-284.368221
-278.154139
-271.644148
-262.470980
-253.889629
-245.900095
-234.063749
-222.819220
-210.982873
-198.258801
-185.238820
-169.851570
-155.943863
-141.444339
-126.057088
-108.006660
-90.548049
-75.752617
-59.773549
-46.161751
-28.111323
-11.540438
1.169173
16.953008
30.398496
44.428571
57.581767
71.027256
83.011278
96.749060
107.563910
120.424812
132.408835
145.269737
158.130639
168.360902
181.514098
196.421053
211.620301
222.435150
231.203947
240.265038
249.910714
258.679511
266.279135
273.878759
282.355263
290.539474
296.093045
301.938910
306.323308
308.661654
308.953947
308.661654
309.538534
308.953947
310.123120
308.369361
306.907895
305.446429
303.692669
300.185150
298.139098
291.708647
287.031955
280.601504
274.463346
265.109962
256.633459
246.987782
237.634398
225.942669
213.666353
200.220865
186.775376
171.576128
157.253759
142.346805
127.732143
111.363722
93.533835
77.165414
61.381579
47.643797
31.567669
16.953008
-0.591817
-13.907707
-27.815414
-41.723121
-55.926736
-69.242626
-83.446242
-94.986679
-107.710752
-119.547098
-131.087536
-144.403425
-157.127498
-168.667935
-178.728830
-196.483349
-210.391056
-221.043768
-229.921028
-241.165557
-247.675547
-257.144624
-266.021884
-273.419600
-280.225500
-287.919125
-292.653663
-298.571836
-303.898192
-304.490010
-305.969553
-306.265461
-308.040913
-308.040913
-305.673644
-306.265461
-303.602284
-303.898192
-302.418649
-299.163654
-294.429115
-289.102759
-283.184586
-277.266413
-271.052331
-261.583254
-253.889629
-244.716461
-233.767840
-224.002854
-210.982873
-198.554710
-184.351094
-167.780209
-154.464320
-140.852521
-124.873454
-107.118934
-89.956232
-75.160799
-58.885823
-44.682207
-28.703140
-12.428164
2.922932
16.953008
32.444549
44.720865
58.458647
71.611842
83.303571
97.918233
108.440789
119.840226
131.531955
144.977444
158.422932
168.360902
180.637218
197.297932
211.328008
223.019737
231.788534
241.434211
250.203008
259.556391
266.571429
275.924812
282.647556
289.662594
297.262218
301.354323
304.861842
307.784774
309.538534
308.953947
309.538534
309.538534
309.538534
309.246241
307.492481
304.569549
303.400376
300.769737
298.139098
292.293233
287.031955
280.893797
273.586466
265.402256
257.510338
247.864662
237.342105
226.234962
215.127820
201.390038
187.359962
172.745301
156.961466
143.515977
128.024436
111.071429
93.826128
78.626880
63.427632
49.105263
33.029135
16.368421
0.584586
-13.315890
-26.927688
-41.723121
-54.447193
-67.763083
-81.966698
-94.098953
-105.639391
-117.179829
-130.199810
-144.107517
-155.056137
-166.892483
-179.024738
-193.228354
-210.686965
-219.860133
-229.033302
-239.686013
-248.563273
-256.256898
-263.950523
-270.756422
-279.633682
-285.847764
-293.837298
-299.755471
-301.530923
-304.194101
-306.265461
-306.561370
-307.153187
-306.857279
-306.561370
-305.377735
-304.194101
-303.010466
-300.347288
-297.092293
-294.725024
-289.990485
-284.368221
-277.562322
-271.348240
-261.583254
-253.297812
-243.828735
-234.359657
-223.115128
-210.686965
-197.371075
-182.575642
-168.372027
-154.464320
-139.668887
-125.761180
-104.455756
-89.068506
-73.385347
-57.998097
-43.498573
-26.927688
-10.356803
3.507519
17.537594
31.859962
46.182331
60.212406
71.611842
85.641917
97.918233
109.609962
120.717105
133.578008
147.315789
160.468985
169.822368
182.390977
198.174812
212.204887
223.604323
231.788534
242.895677
251.079887
260.433271
267.156015
275.340226
282.355263
289.954887
297.846805
302.523496
305.738722
307.784774
309.538534
310.123120
310.123120
309.830827
308.077068
308.369361
307.492481
306.323308
303.692669
300.477444
297.846805
292.000940
285.862782
282.062970
273.586466
264.525376
257.218045
246.403195
237.049812
224.773496
212.789474
200.805451
186.190789
171.283835
156.376880
142.346805
128.024436
109.025376
92.364662
76.873120
61.381579
47.351504
30.983083
15.491541
-1.183635
-14.499524
-28.999049
-42.906755
-55.630828
-69.834443
-83.446242
-96.466223
-108.598478
-119.251189
-131.975262
-144.403425
-158.015224
-169.851570
-180.208373
-195.891532
-210.686965
-221.635585
-229.921028
-240.277831
-248.267364
-256.552807
-265.430067
-271.940057
-279.929591
-287.031399
-294.133206
-299.755471
-303.010466
-305.081827
-305.673644
-307.449096
-305.969553
-306.561370
-306.561370
-305.969553
-304.194101
-303.010466
-301.235014
-298.275928
-294.429115
-288.215033
-284.072312
-275.786870
-271.052331
-260.399619
-251.818268
-244.420552
-234.655566
-222.819220
-210.686965
-196.483349
-183.167460
-167.780209
-152.392959
-139.077069
-122.506185
-105.343482
-88.772598
-72.497621
-56.518554
-42.019029
-25.744053
-10.356803
2.338346
19.583647
32.152256
46.474624
61.089286
73.657895
86.518797
99.379699
110.779135
122.178571
134.747180
148.192669
160.176692
170.406955
183.560150
198.174812
212.497180
223.896617
231.788534
243.480263
251.956767
260.725564
267.740602
276.509398
282.647556
291.708647
297.846805
302.815789
306.615602
307.492481
308.953947
309.538534
309.538534
309.246241
309.246241
308.953947
307.200188
305.154135
303.108083
301.354323
297.262218
292.293233
286.739662
280.601504
273.878759
265.402256
