-212.511781
-215.736098
-123.110273
-97.315740
-146.559849
-152.129123
-134.541942
-117.834119
-101.419416
-84.418473
-69.469369
-54.813384
-38.398680
-22.863336
-7.327992
7.008451
21.317371
36.502347
49.059155
62.784038
76.800939
88.773709
101.330516
113.887324
131.116432
139.584977
155.061972
160.610329
174.919249
193.608451
204.121127
220.474178
228.358685
240.331455
243.835681
252.012207
259.312676
262.524883
272.161502
280.338028
284.134272
290.558685
292.602817
291.434742
288.222535
285.886385
281.798122
276.541784
272.453521
264.861033
256.684507
246.171831
234.491080
224.562441
208.793427
197.404695
176.379343
159.442254
142.505164
124.984038
109.507042
89.357746
75.048826
58.695775
38.838498
25.405634
10.512676
-8.793591
-17.587182
-31.950047
-42.795476
-57.158341
-69.176249
-77.676720
-88.815269
-98.781338
-104.643732
-112.264844
-118.127238
-126.041470
-134.835061
-137.473139
-148.904807
-148.904807
-156.819039
-160.629595
-166.491989
-173.526861
-177.337418
-188.475966
-196.097078
-199.321395
-204.890669
-220.426013
-229.512724
-241.530631
-242.703110
-252.082941
-259.997172
-266.152686
-268.204524
-278.463713
-283.153629
-292.240339
-297.516494
-303.085768
-301.620170
-306.016965
-306.896324
-309.241282
-311.000000
-308.948162
-305.430726
-307.775683
-304.551367
-301.620170
-301.327050
-296.344015
-293.999057
-285.205467
-282.274270
-275.239397
-269.083883
-258.531574
-251.203582
-242.409991
-229.805844
-221.598492
-208.701225
-195.510839
-182.320452
-166.491989
-155.353440
-141.283695
-124.575872
-107.868049
-91.746466
-76.211122
-61.555137
-46.312912
-29.605090
-14.362865
-0.586239
14.016901
28.617840
42.050704
57.235681
69.792488
82.641315
94.614085
108.046948
120.311737
131.700469
146.301408
159.734272
168.786854
182.803756
197.696714
211.713615
224.854460
232.738967
242.083568
252.304225
259.896714
267.489202
275.373709
282.966197
290.266667
297.567136
300.487324
301.363380
308.371831
306.911737
308.079812
306.911737
305.743662
306.035681
306.911737
304.867606
302.239437
298.735211
296.107042
290.558685
283.550235
275.957746
266.029108
257.268545
247.923944
237.995305
226.606573
215.509859
200.324883
187.184038
172.875117
153.309859
137.540845
120.895775
105.710798
86.437559
68.040376
47.891080
34.166197
17.521127
1.168075
-12.897267
-28.139491
-40.743638
-53.934025
-68.003770
-79.435438
-90.573987
-102.005655
-111.092366
-121.937795
-131.317625
-142.749293
-152.129123
-165.612630
-174.699340
-185.251649
-196.390198
-211.339303
-223.650330
-230.978322
-238.599434
-247.979265
-255.307257
-262.049010
-268.790763
-274.653157
-282.567389
-287.843544
-295.464656
-299.568332
-302.206409
-304.551367
-305.723845
-307.482564
-306.896324
-306.896324
-306.016965
-305.723845
-302.499529
-301.327050
-299.861451
-296.637135
-292.533459
-286.377945
-281.394910
-274.360038
-266.445806
-257.065975
-248.272385
-240.358153
-228.047125
-218.667295
-206.649387
-193.459001
-179.975495
-165.319510
-152.129123
-138.352498
-122.524034
-104.057493
-88.229029
-73.573044
-58.623940
-43.674835
-27.260132
-11.724788
2.044131
17.229108
31.830047
45.846948
60.447887
72.128638
86.437559
98.702347
110.383099
121.479812
134.912676
146.885446
160.318310
170.538967
185.139906
200.324883
213.465728
225.146479
233.030986
243.835681
254.640376
261.356808
266.905164
275.957746
284.134272
291.434742
297.567136
301.947418
304.283568
305.451643
307.787793
308.663850
306.619718
307.787793
306.619718
304.867606
304.575587
301.947418
299.611268
297.567136
293.478873
286.762441
281.214085
273.329577
263.692958
254.932394
245.003756
232.738967
221.934272
209.377465
195.652582
181.635681
166.450704
150.681690
135.788732
120.895775
102.790610
84.685446
68.040376
50.811268
35.042254
21.317371
3.796244
-10.259189
-25.794533
-39.278040
-51.882187
-65.951932
-77.676720
-89.401508
-101.126296
-112.264844
-122.524034
-134.541942
-146.266730
-157.698398
-170.595664
-179.975495
-194.045240
-208.701225
-219.546654
-228.926484
-236.547597
-246.220547
-254.427898
-260.290292
-268.204524
-274.066918
-281.394910
-288.722903
-293.999057
-299.275212
-302.206409
-303.378888
-305.137606
-304.551367
-305.430726
-306.603205
-305.723845
-305.137606
-302.499529
-301.327050
-297.809614
-295.757776
-290.774741
-285.498586
-281.101791
-272.601320
-264.393968
-255.893497
-247.979265
-239.771913
-229.512724
-218.667295
-206.063148
-192.872762
-180.561734
-164.440151
-152.129123
-137.473139
-120.765316
-103.764373
-87.349670
-72.986805
-58.330820
-43.088596
-25.794533
-10.552309
3.212207
17.229108
31.246009
45.846948
58.987793
72.128638
84.685446
97.534272
109.507042
120.895775
134.328638
148.053521
160.902347
170.538967
185.431925
201.200939
214.633803
225.146479
233.615023
243.251643
253.180282
262.232864
269.533333
276.249765
283.842254
290.850704
298.735211
303.699531
304.575587
307.203756
308.079812
308.079812
308.371831
308.955869
308.079812
308.079812
306.327700
303.699531
301.071362
298.151174
294.354930
288.806573
281.798122
274.205634
266.613146
255.808451
247.631925
236.243192
224.562441
212.589671
199.448826
183.971831
170.246948
155.646009
139.876995
126.736150
108.923005
89.065728
73.004695
57.819718
42.342723
26.865728
9.344601
-4.983035
-18.759661
-33.415646
-45.140434
-60.089538
-72.107446
-84.711593
-97.608860
-107.868049
-121.058435
-131.024505
-143.628652
-156.232799
-168.250707
-176.751178
-190.234684
-206.649387
-217.201697
-226.288407
-235.961357
-245.048068
-252.669180
-258.238454
-266.152686
-274.066918
-281.101791
-288.136664
-293.412818
-298.982092
-302.499529
-303.378888
-303.672008
-305.137606
-305.137606
-305.723845
-303.085768
-302.792648
-303.672008
-301.620170
-298.102733
-295.171536
-290.481621
-284.912347
-280.515551
-273.480679
-264.687088
-254.427898
-247.393025
-238.599434
-226.288407
-215.736098
-204.597549
-191.700283
-177.044298
-162.974552
-148.611687
-134.541942
-118.420358
-102.005655
-85.297832
-70.348728
-55.399623
-40.157399
-24.035815
-8.500471
4.964319
21.317371
35.042254
47.891080
61.031925
74.756808
87.021596
99.286385
111.551174
123.815962
137.248826
149.805634
164.114554
173.167136
187.768075
203.829108
216.093897
227.190610
236.827230
245.295775
254.056338
263.108920
270.117371
277.125822
284.718310
292.894836
299.319249
303.115493
306.619718
306.619718
308.079812
309.831925
308.663850
307.203756
308.663850
307.787793
305.743662
303.699531
301.655399
298.735211
293.770892
288.514554
282.090141
275.373709
266.613146
256.976526
247.923944
237.703286
225.438498
213.757746
199.448826
187.184038
172.583099
156.814085
142.213146
126.444131
110.091080
91.109859
73.880751
59.571831
43.802817
28.033803
11.680751
-2.051838
-16.707823
-30.777568
-44.554194
-57.158341
-71.814326
-84.125353
-96.143261
-107.868049
-120.765316
-131.903864
-145.094251
-157.405278
-169.130066
-178.216777
-191.700283
-207.528746
-218.374175
-227.167766
-236.254477
-243.875589
-252.962300
-259.704053
-267.325165
-274.946277
-281.981150
-289.309142
-293.999057
-299.861451
-302.206409
-304.844486
-305.723845
-304.551367
-305.137606
-306.310085
-305.430726
-303.672008
-301.913289
-299.568332
-298.688973
-295.171536
-289.602262
-283.739868
-277.584354
-271.428841
-263.514609
-255.307257
-245.341188
-235.668238
-225.115928
-215.149859
-203.131951
-189.648445
-175.871819
-161.215834
-146.266730
-133.662582
-117.247879
-98.781338
-84.125353
-67.710650
-53.347785
-38.105561
-21.983977
-7.034873
7.884507
23.069484
37.086385
49.059155
63.076056
76.216901
89.649765
101.622535
112.719249
126.444131
139.292958
152.725822
163.822535
175.503286
189.812207
204.121127
218.430047
227.774648
237.119249
245.295775
255.808451
263.692958
270.117371
278.001878
285.594366
294.062911
298.735211
303.991549
305.743662
306.619718
309.247887
308.079812
308.079812
308.663850
308.079812
307.787793
305.743662
304.283568
301.947418
297.859155
294.938967
287.930516
282.090141
274.205634
265.737089
257.268545
247.923944
237.995305
225.730516
215.217840
202.369014
187.768075
172.583099
156.814085
142.797183
130.240376
110.967136
94.322066
77.384977
61.615962
46.723005
31.538028
15.184977
-0.293120
-15.535344
-29.018850
-42.502356
-56.572102
-68.590009
-82.073516
-94.677663
-106.988690
-117.247879
-130.731385
-141.576814
-155.939680
-166.491989
-176.458058
-189.355325
-205.770028
-215.149859
-225.995287
-234.202639
-242.409991
-251.496701
-260.290292
-267.032045
-273.480679
-281.394910
-287.843544
-295.171536
-298.102733
-301.033930
-304.258247
-304.258247
-305.430726
-304.258247
-304.258247
-303.085768
-302.792648
-301.620170
-300.154571
-296.344015
-292.826579
-288.722903
-283.153629
-279.049953
-270.842601
-263.514609
-254.134779
-244.754948
-235.668238
-225.702168
-214.270500
-201.080113
-188.769086
-175.285580
-160.336475
-147.146089
-133.369463
-114.902922
-97.901979
-81.780396
-67.124411
-51.295947
-36.346843
-19.639020
-4.983035
9.052582
23.361502
37.670423
51.395305
64.828169
77.092958
89.649765
102.790610
114.179343
126.152113
140.169014
152.141784
164.406573
176.379343
190.104225
206.457277
217.553991
227.482629
239.455399
246.171831
257.268545
263.984977
271.577465
278.877934
285.886385
294.646948
299.319249
303.115493
306.619718
307.495775
308.079812
309.247887
308.371831
308.663850
308.079812
308.371831
304.867606
302.823474
302.239437
298.151174
293.770892
287.638498
281.798122
275.957746
266.613146
256.976526
247.631925
238.871362
226.022535
214.341784
200.908920
186.307981
171.999061
156.230047
143.089202
127.904225
109.799061
91.985915
76.800939
62.200000
45.554930
29.785915
12.848826
-0.879359
-15.535344
-29.018850
-43.381715
-56.865221
-70.055608
-82.366635
-95.263902
-107.868049
-118.420358
-131.317625
-143.628652
-156.525919
-168.543827
-176.164939
-192.579642
-206.356268
-218.081056
-228.047125
-235.375118
-244.461828
-253.548539
-259.997172
-267.618285
-275.239397
-282.860509
-289.895382
-295.464656
-301.033930
-301.033930
-305.137606
-304.258247
-305.137606
-305.137606
-304.551367
-303.965127
-303.965127
-301.327050
-299.568332
-297.516494
-293.412818
-288.722903
-283.153629
-277.877474
-270.256362
-261.169651
-252.376060
-243.289350
-235.375118
-222.477851
-211.632422
-198.735156
-186.717248
-173.819981
-158.284637
-145.094251
-131.024505
-113.144204
-96.436381
-79.728558
-66.538172
-49.537229
-33.708765
-17.587182
-1.758718
10.804695
25.697653
40.298592
53.147418
67.164319
78.845070
93.446009
105.126761
116.223474
128.488263
141.337089
154.769953
165.866667
177.839437
191.856338
207.333333
219.890141
228.358685
238.579343
247.047887
256.976526
263.692958
272.161502
278.877934
287.638498
294.354930
299.319249
303.991549
305.743662
307.787793
309.247887
309.539906
309.539906
307.787793
308.663850
307.787793
306.327700
303.115493
301.363380
298.735211
293.478873
287.930516
282.674178
275.081690
266.321127
257.268545
247.923944
237.703286
226.898592
214.341784
201.784977
188.060094
172.291080
158.274178
144.841315
129.072300
110.675117
93.446009
77.969014
61.615962
46.138967
31.538028
14.892958
0.584038
-14.362865
-28.139491
-41.622997
-55.692743
-68.003770
-82.366635
-94.677663
-105.816211
-117.834119
-130.145146
-142.749293
-155.353440
-166.491989
-177.044298
-190.820924
-206.356268
-217.494816
-225.115928
-234.788878
-244.754948
-253.841659
-260.583412
-267.618285
-274.360038
-282.860509
-289.309142
-295.171536
-300.154571
-300.447691
-303.378888
-304.551367
-304.551367
-304.551367
-304.258247
-304.258247
-303.085768
-299.861451
-299.568332
-295.757776
-292.826579
-288.429783
-282.274270
-276.118756
-270.256362
-260.876532
-252.962300
-242.996230
-234.202639
-224.236569
-212.511781
-200.786993
-186.424128
-171.475024
-157.405278
-144.214892
-129.265787
-111.678605
-93.798303
-79.142319
-64.193214
-49.244109
-31.656927
-16.707823
-1.172479
10.804695
24.821596
40.006573
53.731455
66.288263
79.721127
91.401878
102.790610
116.807512
128.488263
141.337089
154.769953
164.990610
177.839437
191.564319
208.501408
219.598122
229.526761
239.747418
247.631925
256.976526
264.569014
273.329577
279.461972
287.930516
294.062911
300.195305
303.115493
305.743662
308.663850
308.663850
308.955869
308.955869
308.955869
309.247887
306.619718
305.159624
301.947418
302.823474
298.151174
292.894836
288.222535
281.798122
275.665728
265.737089
256.976526
247.631925
236.535211
227.482629
214.341784
202.076995
186.892019
172.291080
156.522066
143.089202
129.072300
111.259155
93.446009
77.384977
63.076056
47.599061
30.953991
15.769014
-0.293120
-15.535344
-28.139491
-42.795476
-55.985862
-69.176249
-81.487276
-94.384543
-105.523091
-117.247879
-130.438266
-141.576814
-154.474081
-165.612630
-175.578699
-192.579642
-205.476909
-216.615457
-226.874647
-235.375118
-245.048068
-253.841659
-260.290292
-267.325165
-274.946277
-281.688030
-289.602262
-295.464656
-298.982092
-301.620170
-302.499529
-303.085768
-304.844486
-304.551367
-304.258247
-303.672008
-302.499529
-301.033930
-298.982092
-297.223374
-292.826579
-287.550424
-280.808671
-277.291235
-268.204524
-259.997172
-252.082941
-241.530631
-233.030160
-222.477851
-210.166824
-196.390198
-184.665410
-170.302545
-155.939680
-143.335533
-126.627710
-109.040528
-92.332705
-77.969840
-61.555137
-45.726673
-30.777568
-14.949105
0.292019
13.724883
28.617840
41.466667
54.899531
68.916432
82.349296
95.782160
106.294836
118.559624
131.408451
144.257277
157.106103
168.202817
178.423474
194.776526
209.377465
221.934272
230.986854
240.331455
249.968075
258.728638
266.321127
274.497653
280.338028
289.682629
296.107042
300.195305
305.159624
306.911737
309.831925
310.123944
308.663850
310.123944
310.707981
309.539906
308.079812
305.743662
304.867606
301.363380
297.567136
292.310798
287.638498
280.922066
274.789671
264.861033
256.684507
247.631925
236.827230
225.730516
212.589671
200.032864
186.307981
171.999061
155.938028
141.629108
127.028169
110.383099
91.109859
75.340845
60.739906
46.138967
30.661972
14.308920
-1.758718
-15.242224
-29.311970
-42.795476
-57.451461
-70.055608
-83.539114
-97.022620
-107.868049
-119.299717
-132.196984
-144.508011
-156.819039
-169.130066
-179.096136
-193.752121
-208.114986
-218.081056
-227.460886
-238.013195
-244.461828
-254.427898
-262.049010
-267.911404
-275.239397
-282.567389
-289.602262
-295.757776
-300.447691
-303.085768
-303.378888
-305.137606
-304.551367
-304.844486
-304.551367
-302.792648
-302.499529
-300.447691
-298.102733
-295.464656
-293.412818
-287.550424
-280.515551
-275.532516
-266.445806
-259.997172
-251.496701
-241.823751
-232.443921
-221.598492
-209.287465
-195.217719
-182.906692
-168.543827
-153.594722
-139.818096
-125.162111
-106.988690
-90.573987
-75.331762
-60.968897
-45.433553
-27.553252
-13.190386
1.460094
15.476995
30.077934
44.678873
57.527700
70.668545
84.393427
96.074178
107.754930
119.727700
132.284507
145.425352
158.274178
168.786854
180.467606
195.944601
209.961502
222.810329
230.986854
240.915493
250.844131
259.896714
266.613146
274.497653
282.674178
289.098592
295.815023
301.655399
304.575587
306.619718
308.663850
309.539906
309.247887
308.371831
309.247887
308.663850
308.371831
305.743662
303.699531
301.363380
296.691080
294.062911
287.930516
281.214085
274.205634
264.276995
256.684507
246.463850
235.951174
225.438498
212.005634
199.740845
186.015962
172.291080
156.230047
142.505164
127.612207
109.507042
92.277934
76.800939
61.031925
47.891080
30.077934
14.892958
-1.172479
-14.949105
-30.191329
-42.502356
-56.278982
-69.176249
-82.952875
-94.677663
-106.695570
-118.420358
-131.024505
-143.628652
-156.232799
-166.491989
-179.096136
-194.045240
-207.821866
-218.667295
-226.874647
-236.254477
-245.048068
-255.014138
-260.876532
-267.032045
-276.118756
-283.153629
-289.016023
-297.223374
-299.568332
-301.913289
-302.206409
-303.085768
-304.258247
-303.085768
-303.672008
-304.551367
-302.499529
-300.447691
-298.395853
-295.464656
-291.654100
-285.498586
-279.636192
-274.360038
-266.445806
-259.410933
-250.617342
-241.237512
-231.857681
-221.012253
-208.994345
-195.803959
-183.786051
-167.957587
-154.180961
-140.697455
-124.575872
-107.281810
-89.694628
-75.918002
-59.503299
-43.674835
-27.846371
-12.311027
2.044131
17.229108
30.661972
44.094836
58.111737
69.208451
83.809390
95.490141
107.170892
120.311737
131.700469
145.133333
157.106103
168.202817
180.759624
196.820657
211.421596
222.810329
231.570892
241.791549
250.552113
259.020657
267.197183
274.205634
282.090141
290.558685
296.983099
301.071362
304.575587
306.619718
308.371831
309.539906
308.955869
309.247887
309.831925
308.079812
306.911737
304.575587
303.699531
299.611268
296.983099
292.310798
286.762441
280.630047
272.745540
264.569014
254.932394
244.711737
236.535211
223.686385
214.341784
198.864789
185.431925
171.707042
155.646009
143.089202
127.904225
108.630986
91.693897
76.508920
61.615962
46.138967
30.369953
13.724883
-0.879359
-14.949105
-29.311970
-42.795476
-57.158341
-69.762488
-82.952875
-94.384543
-107.868049
-118.713478
-131.317625
-145.680490
-156.819039
-167.078228
-178.216777
-194.045240
-208.994345
-218.081056
-228.926484
-236.840716
-245.634307
-254.427898
-263.221489
-268.790763
-275.532516
-283.153629
-289.602262
-296.930254
-299.275212
-301.913289
-301.913289
-303.965127
-303.085768
-303.378888
-302.792648
-302.206409
-301.327050
-300.740811
-297.223374
-295.171536
-290.188501
-286.377945
-281.688030
-274.946277
-266.738926
-258.238454
-248.858624
-239.771913
-229.219604
-219.546654
-206.942507
-194.045240
-179.975495
-167.957587
-151.542884
-138.645617
-123.989632
-105.816211
-88.522149
-72.693685
-56.572102
-42.795476
-26.967012
-11.138549
3.504225
17.813146
32.414085
46.723005
60.155869
72.420657
84.977465
98.410329
109.799061
121.187793
135.204695
146.301408
160.318310
169.370892
181.635681
196.820657
212.297653
223.394366
233.030986
242.959624
252.596244
260.480751
267.489202
274.497653
282.966197
288.514554
296.691080
300.779343
306.911737
306.911737
309.247887
309.831925
308.955869
310.415962
308.955869
309.539906
307.495775
305.743662
303.407512
300.779343
296.983099
291.726761
285.886385
281.506103
272.161502
263.400939
255.224413
244.127700
236.827230
224.270423
212.005634
198.280751
184.847887
169.954930
154.477934
141.045070
125.860094
106.002817
89.649765
74.756808
59.571831
44.094836
27.157746
11.096714
-3.224317
-17.000943
-31.363808
-44.847314
-57.744581
-72.986805
-84.418473
-97.315740
-108.454288
-122.230914
-133.076343
-145.973610
-159.163996
-168.543827
-180.561734
-194.631480
-209.873704
-220.719133
-229.219604
-237.720075
-247.393025
-257.065975
-263.221489
-270.549482
-276.411876
-286.377945
-290.481621
-296.637135
-300.740811
-301.620170
-303.085768
-304.258247
-304.844486
-304.258247
-303.965127
-302.792648
-301.913289
-299.568332
-298.395853
-295.464656
-290.774741
-286.084826
-279.636192
-274.066918
-265.566447
-258.531574
-247.686145
-238.892554
-230.098963
-217.201697
-206.063148
-192.872762
-179.682375
-165.905749
-150.077286
-138.059378
-121.058435
-102.298775
-86.470311
-70.934967
-56.278982
-41.916117
-24.328935
-9.966070
5.256338
18.981221
33.582160
47.307042
61.031925
75.048826
86.729577
99.578404
111.259155
123.815962
135.204695
148.637559
160.902347
171.415023
183.679812
200.616901
214.925822
224.562441
233.615023
243.251643
252.012207
260.188732
268.073239
276.249765
283.258216
289.974648
297.567136
301.071362
305.451643
306.327700
309.247887
308.955869
311.000000
309.247887
310.123944
309.247887
306.911737
305.451643
303.991549
299.903286
296.983099
292.310798
286.470423
278.877934
272.453521
262.232864
253.764319
245.879812
233.323005
223.978404
211.421596
198.572770
183.679812
169.078873
155.061972
141.045070
124.984038
106.878873
90.525822
73.296714
58.695775
44.386854
26.865728
11.680751
-2.344958
-17.000943
-30.191329
-44.847314
-58.917059
-72.107446
-84.125353
-96.143261
-109.040528
-119.885957
-132.490104
-144.801131
-159.457116
-168.250707
-180.561734
-195.803959
-210.166824
-219.839774
-228.047125
-239.185674
-247.393025
-256.479736
-263.807729
-269.670123
-276.998115
-285.205467
-290.481621
-296.930254
-300.154571
-301.913289
-302.792648
-304.551367
-303.672008
-303.085768
-304.258247
-303.378888
-301.620170
-298.688973
-298.102733
-294.292177
-289.895382
-285.791706
-279.636192
-272.601320
-265.566447
-255.307257
-248.272385
-238.599434
-228.047125
-218.081056
-206.356268
-192.579642
-179.682375
-164.440151
-150.956645
-136.886899
-119.592837
-103.178134
-86.763431
-70.934967
-54.813384
-40.157399
-23.449576
-8.207352
6.132394
19.273239
33.874178
47.891080
61.323944
73.588732
87.897653
99.286385
110.383099
122.063850
135.496714
147.761502
161.194366
171.415023
184.847887
199.740845
214.925822
225.146479
234.491080
244.419718
252.888263
261.648826
267.489202
277.125822
283.842254
291.434742
297.275117
303.115493
307.495775
308.079812
308.663850
309.831925
309.539906
310.707981
309.247887
308.371831
306.619718
304.283568
303.115493
300.487324
296.107042
291.434742
287.054460
279.461972
271.285446
262.232864
253.180282
243.835681
233.323005
222.518310
209.961502
197.404695
184.847887
169.078873
153.309859
141.045070
124.400000
105.710798
87.605634
72.712676
58.403756
42.926761
27.449765
11.680751
-3.224317
-17.294062
-32.829406
-45.433553
-58.917059
-72.986805
-85.590952
-97.901979
-109.333648
-121.351555
-134.541942
-146.559849
-159.457116
-169.423186
-181.441093
-196.097078
-209.580584
-220.719133
-228.926484
-238.599434
-248.858624
-255.014138
-262.635250
-269.083883
-277.584354
-285.791706
-292.533459
-296.344015
-299.275212
-301.913289
-302.792648
-303.965127
-302.792648
-302.792648
-303.378888
-303.378888
-302.206409
-298.982092
-297.809614
-293.119698
-290.481621
-283.739868
-277.877474
-272.601320
-264.393968
-256.186616
-245.927427
-237.426956
-228.047125
-216.615457
-204.304430
-190.527804
-177.337418
-163.560792
-148.904807
-134.248822
-119.299717
-100.540057
-83.539114
-68.296890
-53.054665
-38.105561
-21.104618
-6.448633
8.176526
22.485446
36.502347
51.395305
63.660094
75.632864
89.065728
101.622535
113.303286
124.400000
136.956808
150.681690
162.654460
173.459155
186.307981
202.076995
216.385915
225.146479
234.783099
244.419718
253.764319
263.108920
268.949296
277.125822
284.134272
292.894836
297.567136
303.407512
306.327700
308.955869
308.079812
310.707981
309.247887
309.539906
308.955869
308.663850
307.787793
306.327700
303.991549
301.363380
296.399061
292.602817
284.426291
278.001878
270.409390
260.772770
252.888263
243.251643
232.446948
221.642254
207.917371
196.820657
181.343662
167.618779
151.849765
139.000939
122.939906
103.374648
85.853521
72.128638
56.067606
42.050704
25.405634
10.804695
-4.983035
-19.345900
-34.001885
-48.071631
-60.968897
-73.573044
-85.884072
-98.781338
-110.799246
-122.524034
-133.955702
-147.146089
-160.043355
-170.302545
-183.786051
-197.269557
-211.925542
-223.357210
-229.219604
-239.478794
-250.031103
-257.359095
-262.928369
-271.135721
-279.636192
-287.257304
-292.826579
-298.688973
-300.740811
-302.792648
-303.672008
-305.430726
-303.085768
-304.258247
-303.378888
-301.620170
-301.327050
-299.275212
-297.516494
-293.999057
-289.602262
-283.739868
-278.463713
-271.721960
-263.807729
-255.014138
-246.220547
-239.185674
-225.995287
-216.029218
-203.718190
-189.941565
-175.871819
-161.215834
-147.146089
-132.490104
-116.368520
-99.367578
-84.125353
-66.831291
-52.468426
-37.226202
-19.932139
-4.983035
8.468545
21.609390
36.502347
51.103286
63.952113
76.508920
90.233803
103.082629
113.887324
126.444131
138.708920
151.849765
164.406573
174.043192
187.476056
202.369014
218.430047
226.314554
235.367136
246.463850
253.764319
263.692958
269.825352
277.125822
285.010329
292.602817
298.443192
303.699531
305.743662
308.079812
309.539906
309.831925
311.000000
308.955869
309.247887
308.663850
306.327700
305.743662
302.531455
299.903286
295.230986
291.142723
284.718310
277.417840
270.117371
261.064789
252.012207
242.667606
232.154930
220.474178
209.085446
194.776526
180.175587
166.742723
151.849765
138.708920
120.311737
102.790610
85.853521
70.376526
54.899531
40.298592
24.237559
8.468545
-5.569274
-18.466541
-34.295005
-46.899152
-60.382658
-73.279925
-86.177191
-99.074458
-109.919887
-123.403393
-135.421301
-148.025448
-160.336475
-170.595664
-184.372290
-199.028275
-211.925542
-222.184731
-231.857681
-239.771913
-251.496701
-256.479736
-264.100848
-271.721960
-279.049953
-287.257304
-292.533459
-297.516494
-299.861451
-303.085768
-303.085768
-303.378888
-303.672008
-303.672008
-303.085768
-302.792648
-300.740811
-299.275212
-296.930254
-293.999057
-289.016023
-284.619227
-278.170594
-271.721960
-264.393968
-253.841659
-246.220547
-237.426956
-225.409048
-215.149859
-201.666352
-189.355325
-176.458058
-161.802074
-147.439208
-132.783223
-115.782281
-98.195099
-81.780396
-67.124411
-51.882187
-35.174364
-19.639020
-4.983035
9.928638
24.237559
39.130516
51.687324
65.120188
77.092958
89.357746
102.498592
114.179343
126.444131
139.876995
150.681690
164.114554
173.751174
187.768075
204.413146
216.093897
228.358685
236.243192
246.171831
255.224413
263.400939
270.701408
278.585915
286.762441
293.770892
297.567136
302.823474
306.619718
306.911737
308.955869
310.707981
307.787793
310.123944
309.539906
308.079812
307.787793
303.699531
303.407512
299.611268
294.646948
289.974648
284.426291
277.125822
270.117371
260.480751
251.428169
240.915493
232.446948
219.598122
206.749296
193.024413
179.007512
164.990610
150.389671
136.664789
120.019718
100.746479
86.145540
69.208451
55.775587
40.006573
23.653521
6.424413
-7.034873
-21.690858
-35.174364
-48.364750
-62.727615
-75.331762
-88.815269
-99.953817
-111.678605
-123.989632
-136.593779
-149.784166
-161.508954
-171.768143
-185.251649
-200.786993
-212.218662
-223.943450
-232.150801
-241.823751
-250.324222
-258.238454
-264.980207
-272.601320
-279.049953
-286.377945
-294.878417
-297.223374
-299.861451
-302.792648
-303.085768
-302.206409
-303.965127
-302.792648
-302.206409
-302.792648
-300.154571
-299.275212
-296.344015
-293.705938
-288.136664
-283.446748
-277.291235
-270.842601
-262.928369
-254.427898
-245.341188
-235.668238
-226.874647
-213.977380
-202.838831
-188.769086
-174.699340
-158.577757
-145.387370
-131.317625
-113.437323
-96.436381
-82.952875
-65.658812
-50.709708
-35.467484
-18.759661
-3.810556
10.804695
24.529577
38.838498
52.855399
65.704225
79.429108
90.817840
103.082629
115.055399
127.320188
139.292958
151.849765
164.406573
174.627230
189.228169
204.997183
217.261972
227.774648
236.827230
246.171831
255.516432
263.692958
271.577465
279.753991
285.302347
292.310798
299.027230
303.991549
307.495775
308.663850
308.663850
309.831925
309.247887
309.831925
308.079812
309.539906
304.575587
304.283568
301.071362
299.027230
294.062911
289.098592
283.258216
276.541784
268.365258
259.312676
250.260094
241.207512
230.694836
219.014085
205.581221
192.440376
177.547418
162.946479
150.681690
134.620657
116.807512
100.162441
83.225352
68.332394
53.439437
37.670423
22.485446
6.424413
-7.327992
-22.570217
-35.467484
-49.537229
-63.020735
-76.504241
-89.401508
-99.660697
-112.851084
-124.868992
-137.766258
-150.663525
-161.508954
-173.233742
-186.131008
-203.131951
-213.391140
-224.529689
-233.030160
-242.116871
-251.496701
-257.945335
-267.032045
-272.308200
-281.981150
-288.429783
-292.240339
-298.395853
-300.740811
-302.499529
-304.258247
-304.258247
-304.258247
-303.378888
-303.965127
-301.913289
-302.206409
-298.982092
-296.050895
-293.705938
-288.429783
-284.032988
-277.291235
-270.549482
-262.049010
-252.082941
-245.341188
-235.961357
-224.822809
-214.270500
-202.252592
-188.769086
-174.113101
-159.163996
-144.801131
-130.145146
-112.557964
-96.436381
-79.142319
-64.486334
-49.537229
-33.708765
-17.294062
-2.051838
12.556808
26.281690
40.006573
52.271362
66.580282
79.721127
91.693897
104.542723
115.347418
127.028169
139.292958
152.141784
165.574648
174.919249
189.228169
206.165258
216.969953
228.066667
237.119249
246.463850
256.684507
263.692958
272.745540
280.630047
285.010329
293.770892
299.903286
302.239437
306.327700
307.495775
308.955869
309.247887
308.955869
309.831925
308.955869
308.079812
306.327700
303.115493
301.363380
298.735211
294.354930
289.098592
282.674178
276.833803
267.489202
259.312676
249.676056
240.039437
229.526761
218.722066
206.749296
191.856338
178.715493
162.654460
148.637559
133.744601
116.223474
99.870423
82.349296
68.624413
53.439437
37.086385
21.901408
7.008451
-7.914232
-21.983977
-36.346843
-49.830349
-62.727615
-76.504241
-89.108388
-100.833176
-112.264844
-125.455231
-137.766258
-150.956645
-162.095193
-172.647502
-186.717248
-202.252592
-213.977380
-223.943450
-233.323280
-242.116871
-250.910462
-257.945335
-266.152686
-271.721960
-281.394910
-288.429783
-292.533459
-298.395853
-299.568332
-301.620170
-303.672008
-302.792648
-302.499529
-302.792648
-303.672008
-303.085768
-300.154571
-298.982092
-296.637135
-292.826579
-287.843544
-282.860509
-277.584354
-270.842601
-262.635250
-253.255419
-244.754948
-233.909519
-223.650330
-212.511781
-200.200754
-185.837889
-171.768143
-157.405278
-143.335533
-128.972667
-111.385485
-93.505184
-77.090481
-63.313855
-46.606032
-30.484449
-14.949105
-0.293120
14.308920
28.033803
41.466667
54.899531
68.916432
81.765258
94.906103
106.002817
118.559624
129.364319
143.089202
155.938028
166.158685
178.715493
192.148357
207.333333
219.890141
228.650704
239.455399
247.923944
256.976526
265.445070
271.869484
280.046009
288.222535
295.523005
300.195305
304.283568
307.203756
308.079812
310.123944
309.831925
309.831925
309.831925
308.955869
308.663850
306.619718
305.159624
302.823474
298.443192
295.523005
289.390610
283.258216
276.833803
268.657277
258.728638
250.844131
239.163380
229.234742
218.722066
204.705164
192.148357
177.255399
162.362441
148.053521
134.620657
115.347418
98.702347
83.225352
67.748357
52.563380
37.086385
20.441315
4.964319
-8.500471
-21.983977
-37.226202
-50.709708
-64.486334
-77.969840
-89.987747
-102.005655
-114.023563
-124.868992
-137.180019
-150.077286
-162.095193
-172.354383
-187.596607
-201.080113
-213.977380
-223.650330
-233.616400
-244.168709
-250.910462
-259.117813
-266.445806
-273.773798
-281.981150
-287.843544
-293.705938
-298.102733
-301.620170
-302.792648
-303.672008
-303.085768
-304.258247
-302.206409
-302.499529
-301.327050
-300.447691
-298.688973
-295.757776
-292.826579
-287.550424
-282.860509
-276.704995
-269.083883
-260.583412
-251.789821
-242.703110
-233.616400
-224.822809
-211.046183
-199.614515
-186.131008
-171.181904
-156.525919
-141.576814
-126.334590
-110.799246
-94.384543
-77.090481
-63.020735
-47.485391
-31.070688
-15.535344
-0.586239
13.724883
27.157746
41.758685
55.775587
69.208451
81.765258
94.614085
105.710798
117.975587
129.656338
141.045070
155.061972
166.742723
177.547418
192.148357
208.209390
220.182160
229.234742
238.579343
248.800000
257.560563
266.905164
273.329577
281.214085
288.222535
294.062911
301.363380
304.575587
306.327700
308.955869
308.663850
310.415962
308.955869
310.123944
308.371831
307.203756
304.867606
303.407512
301.363380
299.611268
294.354930
287.930516
281.798122
275.373709
266.029108
257.560563
249.092019
240.039437
228.358685
216.093897
204.121127
190.688263
175.211268
160.610329
145.425352
131.408451
114.471362
95.782160
80.013146
65.704225
50.519249
33.874178
18.981221
2.920188
-11.138549
-24.622055
-39.864279
-53.054665
-65.951932
-78.556079
-90.573987
-103.764373
-115.489161
-127.507069
-140.404336
-152.129123
-165.026390
-174.699340
-190.527804
-204.304430
-214.856739
-225.409048
-234.495759
-243.582469
-253.548539
-261.462771
-267.032045
-274.653157
-281.688030
-289.016023
-295.757776
-299.861451
-301.620170
-301.033930
-303.085768
-303.672008
-303.965127
-303.085768
-302.792648
-303.378888
-300.447691
-298.395853
-297.223374
-291.654100
-287.843544
-281.394910
-275.239397
-269.377003
-260.290292
-252.376060
-244.461828
-233.616400
-223.064090
-210.753063
-197.269557
-185.251649
-171.181904
-155.939680
-142.163054
-126.920829
-109.919887
-92.332705
-76.504241
-61.555137
-45.726673
-29.605090
-14.362865
-0.879359
14.600939
29.785915
43.802817
57.527700
70.084507
82.933333
94.614085
106.878873
118.559624
129.364319
143.381221
155.353991
167.326761
178.423474
193.024413
209.669484
220.474178
230.402817
240.623474
248.215962
259.604695
264.569014
274.205634
281.506103
287.054460
295.230986
299.611268
306.619718
307.203756
308.663850
308.371831
308.955869
310.415962
309.831925
309.247887
307.203756
306.035681
303.115493
301.655399
297.859155
292.894836
288.806573
281.214085
275.665728
266.613146
257.268545
247.923944
237.411268
228.358685
215.509859
202.661033
188.936150
173.167136
159.442254
144.841315
129.656338
112.135211
96.074178
79.137089
64.828169
48.767136
32.998122
17.521127
2.044131
-12.311027
-26.967012
-40.157399
-52.761546
-66.831291
-79.728558
-93.798303
-104.350613
-115.196041
-129.852026
-140.697455
-154.767201
-165.319510
-175.871819
-189.941565
-205.770028
-217.201697
-226.581527
-237.133836
-245.048068
-251.789821
-259.704053
-267.911404
-275.532516
-284.326107
-289.309142
-295.464656
-297.809614
-302.206409
-303.378888
-303.672008
-304.844486
-304.844486
-303.378888
-302.499529
-301.033930
-301.033930
-298.395853
-295.464656
-292.240339
-288.136664
-280.808671
-276.118756
-267.911404
-258.238454
-250.617342
-241.823751
-232.737041
-221.598492
-209.287465
-196.976437
