299.319249
291.434742
135.496714
293.186854
306.619718
305.159624
308.079812
304.283568
301.071362
300.487324
293.478873
294.646948
287.346479
281.798122
276.249765
268.657277
259.020657
247.923944
235.659155
221.642254
209.961502
192.148357
178.423474
156.814085
139.000939
121.187793
100.162441
79.429108
61.615962
46.723005
27.741784
11.680751
-4.739048
-21.029524
-37.912381
-45.909524
-60.719048
-68.716190
-80.860000
-93.892381
-103.962857
-112.848571
-115.810476
-126.769524
-135.951429
-139.801905
-150.464762
-153.722857
-162.016190
-168.828571
-176.529524
-191.635238
-190.746667
-201.705714
-217.403810
-224.512381
-236.063810
-241.987619
-251.761905
-259.166667
-264.794286
-276.641905
-281.380952
-284.935238
-294.117143
-301.818095
-307.149524
-305.964762
-306.853333
-310.111429
-311.000000
-311.000000
-310.703810
-308.630476
-308.038095
-308.630476
-307.149524
-304.187619
-297.967619
-296.190476
-292.636190
-284.046667
-280.788571
-275.457143
-264.498095
-256.797143
-246.134286
-239.025714
-226.289524
-212.664762
-202.001905
-186.896190
-170.605714
-160.239048
-144.540952
-128.546667
-111.960000
-95.669524
-79.082857
-63.384762
-48.575238
-32.580952
-17.475238
-3.554286
10.512676
25.989671
40.298592
52.563380
66.872300
79.429108
92.569953
104.834742
117.683568
130.532394
143.965258
157.690141
167.910798
181.343662
195.944601
209.085446
221.934272
231.570892
241.791549
250.260094
258.436620
266.905164
274.789671
283.258216
287.638498
296.983099
301.363380
304.867606
306.619718
305.743662
308.955869
308.663850
306.911737
307.495775
306.619718
304.283568
302.823474
299.027230
296.691080
293.186854
286.762441
278.293897
272.745540
263.400939
254.932394
243.543662
233.323005
221.350235
208.793427
194.192488
178.131455
161.778404
144.549296
128.488263
113.595305
96.658216
76.216901
58.403756
42.050704
27.157746
11.680751
-5.331429
-19.844762
-34.061905
-47.390476
-60.422857
-73.455238
-84.710476
-95.373333
-107.813333
-117.587619
-127.658095
-139.209524
-149.280000
-161.423810
-173.863810
-181.564762
-192.523810
-209.110476
-222.439048
-231.028571
-239.914286
-247.022857
-256.500952
-264.201905
-268.348571
-277.826667
-284.046667
-291.747619
-297.967619
-301.818095
-305.372381
-306.557143
-309.519048
-308.334286
-309.815238
-309.815238
-308.926667
-307.741905
-306.557143
-303.891429
-302.706667
-299.744762
-295.005714
-291.451429
-284.639048
-279.900000
-273.087619
-263.905714
-255.908571
-247.319048
-236.656190
-225.400952
-212.960952
-199.336190
-186.600000
-171.198095
-157.869524
-144.837143
-128.842857
-111.071429
-93.596190
-78.786667
-63.384762
-48.575238
-32.877143
-17.179048
-1.777143
11.096714
26.573709
39.130516
53.731455
67.456338
80.597183
92.569953
105.126761
116.807512
129.656338
144.549296
156.522066
166.450704
181.343662
196.236620
211.713615
221.934272
230.986854
240.623474
248.800000
258.728638
266.029108
275.081690
282.090141
287.930516
296.983099
301.655399
303.699531
305.159624
307.203756
307.787793
308.079812
309.247887
308.079812
306.327700
304.283568
302.531455
300.487324
299.319249
294.938967
289.974648
283.842254
275.957746
269.241315
259.312676
248.215962
238.287324
226.898592
214.925822
200.908920
187.476056
172.875117
156.814085
141.921127
126.736150
110.675117
91.693897
74.172770
58.987793
42.634742
27.741784
10.804695
-4.442857
-19.844762
-33.173333
-46.798095
-59.830476
-72.270476
-85.006667
-96.558095
-108.405714
-120.549524
-130.323810
-143.356190
-154.019048
-167.940000
-177.714286
-190.154286
-205.556190
-217.996190
-227.178095
-236.360000
-244.949524
-253.835238
-260.055238
-267.756190
-276.049524
-283.454286
-290.266667
-298.560000
-300.929524
-305.668571
-305.668571
-308.334286
-308.926667
-308.334286
-308.926667
-309.815238
-307.741905
-307.741905
-303.891429
-302.114286
-299.744762
-295.005714
-289.378095
-283.454286
-278.715238
-272.199048
-263.905714
-253.835238
-246.134286
-233.398095
-224.216190
-210.295238
-197.855238
-183.045714
-169.717143
-156.092381
-143.356190
-127.658095
-108.701905
-93.003810
-76.713333
-61.311429
-46.798095
-29.915238
-15.105714
-0.888571
13.724883
28.617840
41.466667
56.067606
68.624413
82.641315
95.198122
107.170892
119.727700
131.992488
145.425352
157.690141
169.078873
181.635681
197.112676
211.421596
223.102347
230.986854
242.667606
250.844131
259.312676
267.489202
275.081690
282.382160
291.726761
299.027230
302.239437
304.575587
306.911737
307.787793
307.787793
308.663850
308.079812
307.787793
307.495775
305.743662
303.115493
301.655399
299.027230
295.523005
289.390610
284.134272
279.169953
270.117371
260.772770
252.304225
241.207512
229.818779
218.138028
205.289202
188.644131
175.503286
159.150235
146.009390
130.824413
114.763380
96.366197
78.261033
61.907981
46.138967
31.830047
16.645070
0.876056
-15.401905
-28.434286
-42.355238
-55.980000
-67.827619
-80.563810
-94.780952
-106.628571
-117.883810
-130.323810
-142.467619
-153.130476
-167.643810
-176.233333
-188.969524
-203.186667
-217.996190
-226.881905
-235.175238
-244.357143
-252.354286
-261.240000
-266.867619
-275.160952
-283.158095
-289.674286
-296.782857
-300.929524
-305.076190
-307.741905
-308.630476
-309.222857
-308.926667
-306.853333
-307.741905
-308.038095
-306.260952
-304.780000
-303.595238
-298.856190
-294.709524
-290.859048
-284.935238
-279.307619
-271.310476
-262.424762
-254.723810
-245.245714
-234.879048
-224.512381
-211.480000
-196.670476
-185.415238
-168.828571
-155.796190
-142.763810
-125.880952
-108.109524
-92.411429
-76.120952
-60.719048
-46.798095
-29.322857
-13.624762
0.584038
15.476995
29.201878
43.802817
56.651643
69.792488
82.349296
95.198122
107.462911
119.435681
133.160563
145.425352
158.858216
169.370892
182.511737
198.864789
211.713615
222.226291
231.862911
240.915493
252.012207
258.728638
267.489202
275.665728
281.506103
290.266667
297.275117
302.239437
303.991549
307.203756
307.787793
309.247887
308.663850
308.079812
308.079812
308.663850
306.035681
304.283568
301.363380
299.903286
294.938967
289.974648
284.718310
278.877934
270.409390
261.648826
252.596244
242.959624
232.154930
219.598122
206.457277
192.440376
176.963380
162.946479
147.469484
134.620657
116.807512
98.702347
82.057277
65.996244
50.519249
35.334272
18.981221
3.504225
-10.959048
-27.545714
-40.578095
-54.202857
-65.754286
-79.379048
-92.707619
-104.555238
-115.810476
-127.361905
-139.801905
-151.945714
-164.978095
-174.456190
-187.784762
-202.890476
-217.700000
-225.104762
-236.063810
-243.172381
-250.577143
-260.943810
-267.756190
-274.864762
-283.750476
-291.451429
-297.375238
-301.818095
-305.964762
-307.149524
-308.038095
-308.630476
-308.038095
-308.630476
-307.149524
-305.964762
-305.372381
-302.114286
-300.929524
-297.967619
-294.117143
-289.674286
-283.454286
-278.122857
-270.421905
-261.536190
-254.131429
-244.653333
-233.101905
-223.031429
-210.295238
-197.262857
-183.045714
-168.828571
-156.684762
-140.690476
-126.177143
-109.590476
-92.707619
-75.824762
-60.719048
-46.205714
-30.211429
-14.809524
1.752113
15.184977
30.077934
44.386854
56.651643
69.792488
82.349296
95.490141
106.878873
118.267606
131.992488
145.425352
157.690141
169.662911
182.511737
196.820657
212.881690
222.518310
232.154930
241.499531
251.428169
259.896714
267.197183
275.665728
282.382160
292.018779
298.151174
301.947418
305.743662
306.327700
307.203756
308.371831
308.371831
308.079812
308.079812
308.079812
305.159624
303.991549
301.655399
298.735211
295.230986
290.558685
284.718310
278.877934
270.701408
262.524883
253.180282
242.959624
232.738967
220.182160
207.041315
193.608451
179.299531
163.238498
149.805634
135.496714
120.895775
101.622535
82.349296
67.748357
52.271362
37.962441
22.777465
6.424413
-8.293333
-21.918095
-38.208571
-50.352381
-63.680952
-77.898095
-90.634286
-101.593333
-113.144762
-124.400000
-138.617143
-152.241905
-162.312381
-173.567619
-184.822857
-201.113333
-214.738095
-224.512381
-232.509524
-241.691429
-251.761905
-258.278095
-266.275238
-274.272381
-281.380952
-290.562857
-295.005714
-302.410476
-304.187619
-307.149524
-308.926667
-308.630476
-309.222857
-307.149524
-308.038095
-307.741905
-305.668571
-303.595238
-300.337143
-298.263810
-293.228571
-288.785714
-283.454286
-276.938095
-269.829524
-262.128571
-252.650476
-243.764762
-233.694286
-222.439048
-210.295238
-197.262857
-182.453333
-168.532381
-153.722857
-140.690476
-125.880952
-106.628571
-90.338095
-74.047619
-57.757143
-44.428571
-27.841905
-11.551429
2.920188
17.521127
31.538028
44.678873
58.403756
72.128638
83.809390
96.366197
107.462911
120.603756
131.992488
146.301408
159.442254
169.662911
184.263850
199.156808
211.713615
224.562441
232.738967
242.667606
251.720188
260.772770
269.241315
275.665728
284.426291
290.850704
297.567136
302.823474
306.327700
307.203756
308.079812
309.247887
309.539906
308.079812
308.079812
307.203756
305.451643
303.699531
302.531455
299.027230
295.815023
290.558685
284.134272
280.630047
271.285446
262.816901
253.180282
242.959624
232.446948
220.766197
207.333333
193.900469
178.715493
163.238498
148.929577
134.620657
118.851643
101.622535
84.101408
68.332394
52.855399
37.378404
21.901408
6.424413
-8.589524
-23.695238
-37.320000
-50.648571
-65.458095
-78.786667
-90.930476
-103.074286
-114.033333
-126.473333
-139.209524
-151.353333
-163.793333
-174.456190
-186.896190
-201.705714
-216.219048
-225.104762
-234.286667
-243.172381
-252.058095
-260.943810
-265.979048
-274.272381
-282.861905
-289.674286
-295.005714
-302.706667
-305.076190
-305.668571
-306.557143
-308.038095
-308.038095
-308.334286
-308.038095
-307.149524
-305.076190
-303.595238
-301.225714
-298.263810
-293.820952
-289.081905
-284.046667
-277.826667
-270.718095
-261.536190
-251.465714
-243.468571
-232.805714
-222.142857
-208.814286
-196.078095
-181.860952
-167.347619
-153.130476
-139.209524
-122.030476
-106.924762
-88.857143
-74.640000
-57.757143
-42.355238
-26.657143
-10.959048
3.796244
17.521127
32.998122
46.138967
60.155869
73.588732
86.145540
98.702347
109.215023
121.187793
134.620657
147.761502
160.318310
169.954930
184.555869
200.032864
214.341784
224.562441
233.907042
242.959624
252.888263
260.772770
267.781221
276.541784
285.594366
289.974648
298.151174
302.531455
305.451643
307.203756
308.079812
308.663850
309.831925
309.247887
308.371831
308.371831
306.035681
303.991549
301.947418
299.903286
295.815023
290.558685
285.010329
278.001878
271.577465
261.940845
253.180282
243.835681
234.199061
221.642254
208.501408
194.484507
180.467606
164.406573
150.097653
137.832864
121.187793
101.914554
84.101408
68.916432
53.731455
38.254460
22.777465
8.176526
-7.108571
-21.621905
-34.950476
-49.167619
-62.792381
-75.824762
-89.449524
-101.000952
-111.960000
-124.103810
-138.024762
-150.464762
-162.904762
-172.679048
-186.303810
-201.409524
-215.034286
-225.993333
-232.805714
-242.580000
-250.280952
-260.055238
-267.460000
-274.272381
-283.158095
-291.451429
-297.375238
-301.521905
-305.076190
-305.076190
-307.149524
-308.038095
-307.445714
-307.149524
-307.741905
-306.260952
-305.668571
-302.114286
-301.521905
-297.375238
-292.932381
-288.489524
-282.565714
-276.641905
-268.940952
-261.536190
-251.465714
-242.580000
-232.509524
-221.254286
-209.110476
-196.078095
-180.972381
-167.643810
-152.834286
-140.098095
-123.215238
-106.036190
-88.264762
-71.678095
-58.053333
-42.355238
-26.953333
-10.366667
3.504225
19.565258
32.414085
45.554930
58.987793
72.420657
85.269484
97.826291
110.091080
121.187793
134.036620
147.177465
159.442254
169.954930
183.387793
199.740845
214.049765
224.562441
233.030986
243.543662
251.428169
260.480751
269.241315
275.081690
284.718310
293.186854
299.027230
303.407512
306.035681
307.787793
308.371831
308.663850
309.247887
308.371831
308.079812
308.079812
305.743662
304.575587
302.531455
298.151174
296.107042
289.682629
284.134272
279.169953
270.993427
263.108920
254.640376
244.711737
234.199061
221.934272
209.377465
194.192488
179.883568
165.574648
150.681690
137.540845
120.311737
102.790610
85.269484
70.084507
56.067606
40.590610
24.237559
7.300469
-5.331429
-20.437143
-35.246667
-48.279048
-61.607619
-75.232381
-87.672381
-99.816190
-111.367619
-124.103810
-136.840000
-148.391429
-161.127619
-171.494286
-184.822857
-200.224762
-213.553333
-224.216190
-232.213333
-243.468571
-250.280952
-260.055238
-268.940952
-274.272381
-283.454286
-289.970476
-296.782857
-302.706667
-304.780000
-306.260952
-306.557143
-305.964762
-307.445714
-307.445714
-305.964762
-305.668571
-304.483810
-302.706667
-300.337143
-296.782857
-292.043810
-289.378095
-282.565714
-277.234286
-268.644762
-259.759048
-252.058095
-242.580000
-232.213333
-219.180952
-208.221905
-194.300952
-180.083810
-166.162857
-152.241905
-137.432381
-122.030476
-105.443810
-87.376190
-71.678095
-56.276190
-40.578095
-24.880000
-10.070476
4.088263
19.857277
33.290141
47.015023
60.447887
73.004695
86.729577
98.702347
110.383099
123.523944
135.788732
147.177465
160.318310
170.830986
184.263850
200.616901
214.049765
225.730516
233.615023
243.543662
252.888263
260.772770
268.073239
277.125822
284.718310
294.062911
299.027230
303.699531
306.619718
308.371831
308.955869
310.415962
308.955869
309.539906
309.831925
308.079812
307.203756
303.991549
301.655399
299.903286
295.523005
291.142723
285.010329
278.585915
270.117371
261.648826
253.764319
243.251643
232.154930
221.058216
208.501408
194.192488
179.591549
165.574648
150.973709
136.664789
120.895775
101.622535
83.809390
68.916432
54.899531
39.130516
23.361502
7.592488
-6.516190
-20.733333
-35.542857
-50.056190
-62.496190
-76.713333
-87.968571
-100.704762
-112.848571
-124.103810
-137.432381
-149.576190
-162.904762
-173.271429
-185.711429
-201.705714
-214.738095
-225.400952
-233.398095
-242.580000
-251.465714
-260.943810
-268.052381
-273.976190
-284.342857
-289.081905
-297.079048
-301.521905
-304.483810
-307.149524
-307.445714
-307.741905
-307.741905
-308.334286
-307.741905
-306.853333
-304.483810
-302.706667
-301.521905
-297.671429
-292.340000
-289.081905
-281.677143
-276.938095
-268.940952
-261.240000
-251.169524
-242.876190
-230.732381
-219.773333
-207.629524
-193.708571
-179.491429
-164.089524
-150.760952
-136.543810
-119.957143
-102.778095
-85.895238
-70.493333
-55.091429
-39.393333
-22.806667
-7.404762
7.300469
20.441315
35.626291
48.475117
62.492019
75.048826
87.605634
101.038498
111.843192
124.692019
136.956808
149.513615
161.486385
172.583099
185.723944
201.492958
215.801878
225.730516
235.367136
243.543662
254.056338
261.064789
269.533333
277.125822
285.302347
292.310798
299.611268
303.699531
306.911737
307.787793
309.247887
309.539906
308.955869
310.123944
309.539906
308.663850
306.911737
304.867606
301.947418
299.027230
295.523005
290.558685
284.134272
279.169953
270.409390
262.232864
254.056338
242.959624
233.615023
220.766197
208.793427
194.484507
180.175587
166.450704
150.681690
138.416901
121.771831
103.374648
86.437559
71.544601
56.067606
41.466667
24.821596
8.176526
-5.627619
-19.844762
-34.654286
-46.501905
-61.607619
-75.824762
-87.672381
-100.408571
-112.848571
-124.103810
-135.655238
-148.687619
-162.312381
-171.494286
-185.711429
-200.817143
-214.441905
-224.512381
-232.213333
-242.876190
-252.058095
-260.647619
-267.756190
-274.864762
-283.158095
-290.859048
-296.190476
-301.818095
-305.076190
-306.260952
-308.038095
-307.741905
-308.038095
-306.260952
-306.557143
-306.260952
-303.891429
-302.114286
-299.448571
-296.782857
-291.155238
-286.416190
-282.269524
-275.457143
-268.052381
-260.055238
-250.577143
-241.691429
-231.324762
-218.884762
-208.518095
-194.893333
-179.491429
-165.274286
-151.057143
-139.209524
-122.030476
-103.074286
-86.783810
-69.604762
-55.091429
-39.097143
-22.214286
-8.589524
7.008451
20.441315
35.334272
49.059155
62.784038
75.924883
88.189671
100.162441
111.259155
123.523944
136.080751
149.221596
162.362441
171.415023
186.307981
200.908920
215.801878
224.854460
235.367136
244.127700
254.640376
261.064789
269.825352
276.833803
285.302347
293.770892
299.611268
303.407512
306.327700
307.787793
308.371831
309.539906
309.539906
309.831925
309.831925
308.371831
306.619718
304.867606
301.655399
299.319249
295.230986
289.682629
284.718310
278.585915
270.701408
261.940845
252.888263
242.959624
230.986854
220.474178
207.625352
193.900469
179.591549
164.406573
149.805634
136.664789
120.311737
102.790610
85.269484
69.208451
54.899531
40.882629
23.945540
7.884507
-6.812381
-20.140952
-34.950476
-49.167619
-63.088571
-75.528571
-87.968571
-100.704762
-112.848571
-124.696190
-137.728571
-150.464762
-162.016190
-173.863810
-186.896190
-202.594286
-215.034286
-224.216190
-233.694286
-243.764762
-251.465714
-261.240000
-267.756190
-274.864762
-283.158095
-292.340000
-297.967619
-301.521905
-305.372381
-305.076190
-306.260952
-308.038095
-306.557143
-308.038095
-306.557143
-306.260952
-304.187619
-302.410476
-300.040952
-296.190476
-292.636190
-286.712381
-283.750476
-276.049524
-266.867619
-259.166667
-250.873333
-240.210476
-230.140000
-219.477143
-207.333333
-192.820000
-179.195238
-164.089524
-151.057143
-136.247619
-121.734286
-102.185714
-84.710476
-69.900952
-54.795238
-38.208571
-23.695238
-7.700952
7.300469
22.485446
35.918310
49.643192
63.368075
75.632864
87.313615
100.454460
112.135211
122.939906
136.664789
148.053521
162.070423
171.415023
185.139906
201.784977
215.217840
227.190610
234.491080
245.003756
254.640376
262.524883
270.117371
278.877934
285.594366
293.186854
299.611268
303.991549
306.619718
308.663850
308.955869
309.539906
308.955869
309.247887
308.955869
308.371831
306.327700
303.699531
301.947418
299.027230
294.354930
289.390610
283.550235
277.709859
270.409390
261.648826
253.180282
243.835681
232.738967
220.766197
207.625352
193.608451
179.883568
164.698592
150.097653
137.832864
119.143662
103.082629
84.685446
70.084507
53.731455
38.838498
23.361502
8.468545
-7.700952
-21.621905
-36.431429
-50.056190
-63.384762
-77.009524
-90.338095
-101.593333
-113.144762
-124.400000
-137.432381
-150.464762
-163.200952
-172.382857
-185.415238
-201.705714
-213.257143
-226.289524
-233.694286
-244.060952
-252.354286
-260.647619
-269.829524
-276.049524
-283.158095
-290.562857
-296.486667
-301.818095
-304.483810
-306.853333
-307.149524
-307.149524
-308.334286
-308.038095
-307.445714
-306.260952
-305.076190
-302.706667
-300.633333
-296.782857
-292.636190
-288.193333
-282.565714
-275.753333
-268.348571
-258.870476
-252.058095
-240.802857
-230.436190
-218.588571
-206.740952
-192.523810
-177.714286
-164.978095
-151.353333
-135.655238
-119.957143
-101.000952
-84.414286
-68.716190
-53.018095
-38.504762
-22.214286
-7.108571
7.884507
22.777465
36.794366
49.935211
63.660094
76.800939
88.773709
102.206573
113.303286
124.400000
137.248826
150.097653
162.070423
171.707042
186.892019
202.369014
215.509859
226.898592
234.783099
245.587793
253.472300
262.524883
270.409390
279.169953
287.054460
293.478873
299.319249
304.575587
306.327700
308.955869
310.123944
309.247887
309.539906
308.079812
308.371831
308.663850
306.035681
304.283568
301.655399
298.735211
295.523005
289.390610
283.842254
277.709859
268.949296
261.356808
252.596244
243.543662
231.570892
219.890141
207.041315
193.900469
179.591549
164.990610
150.973709
137.832864
119.143662
103.082629
85.269484
70.376526
54.899531
38.838498
23.361502
7.300469
-6.516190
-22.214286
-37.320000
-49.167619
-63.680952
-76.713333
-90.041905
-101.297143
-113.440952
-124.696190
-138.024762
-151.057143
-162.312381
-173.271429
-186.896190
-202.298095
-215.626667
-226.881905
-233.398095
-244.060952
-252.946667
-263.313333
-268.644762
-277.234286
-284.046667
-291.155238
-297.375238
-302.410476
-303.595238
-306.853333
-308.038095
-308.038095
-308.334286
-307.149524
-307.149524
-307.149524
-303.891429
-301.818095
-300.929524
-297.671429
-292.340000
-287.600952
-282.565714
-274.864762
-268.348571
-259.462857
-250.873333
-240.210476
-230.436190
-218.292381
-205.852381
-192.227619
-177.418095
-163.793333
-149.280000
-134.766667
-117.291429
-100.408571
-82.933333
-68.123810
-51.240952
-36.431429
-21.918095
-5.627619
9.344601
23.361502
37.086385
52.563380
64.828169
77.092958
90.525822
101.914554
114.763380
126.444131
137.832864
151.849765
163.238498
174.043192
187.768075
203.829108
216.969953
226.898592
235.367136
245.003756
255.224413
262.816901
270.409390
278.293897
286.470423
293.478873
299.319249
304.283568
306.327700
307.787793
310.415962
309.831925
309.539906
309.831925
308.663850
308.955869
307.495775
305.159624
301.947418
298.735211
294.062911
289.974648
283.842254
278.293897
270.409390
260.772770
252.888263
243.835681
232.738967
220.766197
208.209390
193.608451
179.591549
164.990610
150.097653
136.956808
120.311737
101.914554
86.437559
69.792488
54.315493
39.714554
23.069484
7.008451
-7.404762
-20.733333
-36.727619
-49.167619
-62.496190
-76.120952
-88.560952
-101.297143
-113.144762
-124.696190
-137.728571
-151.353333
-163.200952
-173.567619
-185.711429
-202.594286
-214.441905
-226.289524
-233.990476
-243.468571
-252.354286
-260.647619
-268.052381
-275.160952
-284.342857
-290.859048
-296.782857
-301.225714
-304.780000
-306.853333
-306.260952
-308.038095
-308.630476
-307.149524
-305.964762
-305.668571
-304.780000
-301.225714
-300.337143
-296.486667
-292.043810
-287.304762
-281.677143
-274.568571
-267.163810
-257.685714
-249.392381
-241.099048
-229.547619
-217.996190
-206.148571
-192.820000
-177.418095
-161.720000
-149.576190
-133.581905
-117.883810
-100.112381
-83.821905
-68.123810
-53.018095
-36.727619
-21.029524
-5.923810
8.760563
22.485446
37.670423
50.227230
64.244131
77.676995
89.941784
101.038498
112.427230
126.444131
137.832864
150.389671
162.946479
174.043192
187.476056
202.661033
217.553991
225.730516
236.243192
244.419718
254.932394
262.524883
269.825352
279.169953
285.886385
293.186854
299.903286
304.867606
306.911737
307.203756
308.955869
309.539906
308.663850
308.371831
308.663850
308.079812
305.743662
303.699531
301.947418
298.735211
295.230986
290.266667
282.382160
277.709859
269.241315
261.064789
252.888263
242.083568
230.694836
219.598122
207.041315
192.732394
177.839437
164.698592
150.681690
136.080751
119.727700
101.038498
84.685446
69.500469
55.483568
38.546479
23.069484
7.884507
-7.108571
-21.621905
-35.542857
-48.279048
-62.496190
-76.120952
-88.857143
-100.704762
-111.960000
-124.696190
-138.320952
-150.760952
-161.720000
-171.198095
-187.192381
-202.298095
-214.738095
-224.216190
-233.694286
-242.876190
-253.242857
-261.240000
-268.940952
-277.530476
-283.158095
-290.859048
-297.375238
-302.410476
-304.187619
-307.445714
-307.741905
-306.260952
-307.149524
-307.149524
-306.853333
-305.964762
-303.002857
-301.818095
-299.448571
-296.486667
-292.932381
-287.304762
-282.269524
-274.272381
-267.756190
-257.981905
-251.169524
-240.210476
-229.251429
-217.107619
-205.260000
-191.042857
-177.418095
-162.608571
-148.687619
-134.470476
-117.883810
-99.520000
-82.637143
-68.123810
-51.537143
-37.023810
-20.437143
-5.627619
8.468545
24.529577
36.794366
51.395305
63.660094
76.800939
89.649765
101.914554
113.303286
124.692019
137.832864
150.097653
163.530516
173.167136
187.768075
204.121127
216.385915
227.190610
234.783099
245.295775
253.472300
262.524883
270.117371
277.709859
286.178404
294.354930
300.195305
304.867606
305.451643
308.663850
309.831925
309.539906
310.123944
308.955869
309.247887
308.371831
305.451643
305.159624
303.115493
299.319249
294.354930
289.974648
283.550235
277.709859
270.117371
261.064789
252.596244
243.543662
232.446948
220.474178
207.041315
193.608451
179.299531
165.574648
150.681690
136.664789
119.143662
101.622535
85.269484
68.916432
54.899531
39.422535
24.237559
8.468545
-7.997143
-19.548571
-34.654286
-48.575238
-61.903810
-75.824762
-86.783810
-99.223810
-112.256190
-123.511429
-137.432381
-149.872381
-160.535238
-172.679048
-186.896190
-201.409524
-215.626667
-224.216190
-235.175238
-243.468571
-253.835238
-260.647619
-268.052381
-275.753333
-282.861905
-291.155238
-297.967619
-301.225714
-303.299048
-306.260952
-307.445714
-308.334286
-307.445714
-306.853333
-306.853333
-304.483810
-303.299048
-302.114286
-299.448571
-295.005714
-291.747619
-285.231429
-281.380952
-273.383810
-266.571429
-257.685714
-248.800000
-238.729524
-228.955238
-217.700000
-204.667619
-190.746667
-176.825714
-161.423810
-146.318095
-134.470476
-116.106667
-98.335238
-83.229524
-66.050476
-52.129524
-35.839048
-19.844762
-3.554286
9.636620
25.697653
40.006573
52.855399
65.996244
78.845070
91.693897
104.250704
114.763380
127.028169
139.876995
152.433803
164.990610
174.335211
188.936150
204.997183
217.846009
229.234742
236.243192
246.171831
254.932394
263.400939
271.869484
279.169953
286.178404
296.399061
300.779343
304.867606
307.203756
308.371831
309.247887
309.539906
309.247887
309.539906
308.955869
307.787793
306.911737
303.699531
301.363380
298.443192
294.354930
289.682629
283.550235
278.001878
269.533333
261.648826
251.136150
242.667606
232.154930
219.890141
206.749296
192.732394
178.423474
163.238498
149.221596
136.080751
119.435681
100.746479
84.101408
70.084507
54.023474
37.670423
23.069484
6.132394
-7.700952
-22.214286
-35.542857
-48.871429
-63.977143
-76.713333
-90.338095
-101.000952
-113.737143
-127.658095
-139.209524
-152.241905
-162.312381
-174.752381
-187.784762
-203.779048
-215.922857
-225.993333
-235.767619
-243.468571
-253.835238
-260.943810
-268.644762
-277.234286
-284.639048
-291.451429
-296.486667
-303.299048
-304.483810
-305.372381
-307.149524
-307.741905
-307.149524
-307.149524
-307.149524
-305.964762
-304.483810
-301.818095
-298.856190
-296.486667
-291.451429
-285.527619
-281.084762
-274.272381
-267.460000
-257.389524
-249.392381
-237.840952
-229.251429
-215.922857
-204.963810
-190.154286
-175.937143
-159.942857
-146.910476
-132.989524
-114.625714
-96.558095
-81.748571
-66.346667
-49.760000
-34.358095
-18.956190
-4.146667
11.680751
25.113615
39.714554
53.731455
67.164319
80.305164
92.861972
105.418779
115.347418
127.904225
140.461033
153.893897
165.282629
175.795305
190.396244
206.165258
218.722066
228.942723
237.411268
246.755869
256.684507
265.153052
272.453521
278.293897
287.930516
295.523005
299.903286
304.867606
306.911737
308.663850
309.831925
309.247887
309.247887
308.663850
309.831925
308.079812
306.035681
305.159624
302.823474
299.027230
294.646948
289.682629
283.550235
278.293897
268.949296
260.480751
252.012207
242.667606
230.402817
219.014085
206.749296
193.316432
178.131455
164.406573
149.513615
136.956808
118.851643
101.330516
84.977465
68.916432
54.023474
38.254460
22.777465
7.592488
-6.516190
-21.621905
-35.839048
-50.056190
-64.273333
-76.713333
-89.449524
-101.593333
-112.256190
-125.584762
-137.432381
-151.057143
-162.608571
-172.679048
-188.673333
-202.594286
-215.626667
-225.400952
-233.694286
-244.357143
-252.946667
-262.128571
-269.829524
-275.753333
-283.750476
-292.340000
-298.856190
-301.818095
-304.483810
-305.964762
-305.076190
-305.668571
-306.557143
-306.853333
-305.964762
-305.372381
-303.595238
-300.040952
-298.856190
-295.894286
-290.859048
-286.416190
-280.196190
-273.976190
-266.571429
-256.797143
-248.800000
-238.433333
-227.474286
-215.330476
-203.186667
-189.561905
-175.048571
-160.239048
-147.799048
-131.508571
-115.514286
-97.150476
-80.860000
-64.273333
-49.167619
-34.654286
-18.660000
-2.961905
11.680751
25.989671
39.422535
52.855399
65.996244
78.845070
90.817840
103.666667
113.887324
127.320188
140.461033
153.601878
164.406573
175.211268
189.520188
205.289202
219.598122
227.190610
237.995305
245.587793
256.392488
264.569014
272.453521
279.461972
286.762441
296.107042
301.071362
304.867606
307.203756
308.663850
308.955869
309.831925
310.415962
309.539906
308.079812
308.955869
305.743662
304.283568
302.239437
298.735211
294.062911
289.390610
284.426291
278.001878
269.825352
259.896714
252.596244
242.083568
230.694836
219.306103
206.165258
192.148357
177.255399
164.114554
149.805634
136.080751
118.559624
100.454460
84.685446
68.332394
54.023474
38.838498
22.485446
7.592488
-7.108571
-21.325714
-35.542857
-49.167619
-61.903810
-75.824762
-88.264762
-101.297143
-113.737143
-124.400000
-138.617143
-150.760952
-162.312381
-172.975238
-187.784762
-204.667619
-215.626667
-225.400952
-234.582857
-244.357143
-253.835238
-260.943810
-268.644762
-277.530476
-283.158095
-292.340000
-298.560000
-302.706667
-303.595238
-305.372381
-306.557143
-306.557143
-306.853333
-305.668571
-305.964762
-305.076190
-303.595238
-301.225714
-299.448571
-295.301905
-290.859048
-287.008571
-280.196190
-273.680000
-264.794286
-256.204762
-248.503810
-237.840952
-227.770476
-215.330476
-202.594286
-189.858095
-175.048571
-160.239048
-145.429524
-132.397143
-113.737143
-97.446667
-79.675238
-65.161905
-50.352381
-34.358095
-18.363810
-1.184762
12.264789
26.281690
41.174648
53.731455
67.748357
79.721127
92.861972
104.250704
115.931455
129.072300
140.753052
153.017840
165.866667
175.795305
190.104225
206.749296
218.138028
229.526761
237.411268
247.339906
256.392488
264.276995
271.869484
279.753991
287.930516
295.523005
302.531455
305.159624
306.911737
308.371831
309.539906
310.123944
309.539906
309.247887
309.247887
308.663850
306.911737
304.575587
302.239437
299.319249
294.938967
289.974648
284.134272
277.125822
268.657277
260.188732
252.596244
241.791549
229.818779
218.722066
205.581221
190.396244
176.671362
163.530516
148.637559
135.788732
118.267606
99.286385
84.101408
67.748357
53.439437
36.794366
20.441315
6.132394
-8.293333
-23.399048
-37.912381
-50.944762
-64.273333
-77.601905
-91.522857
-101.889524
-115.514286
-127.065714
-139.505714
-151.649524
-164.978095
-173.863810
-188.080952
-204.667619
-215.922857
-228.066667
-233.990476
-245.838095
-253.835238
-260.943810
-268.644762
-277.234286
-285.231429
-292.043810
-298.263810
-301.818095
-304.187619
-307.149524
-306.260952
-307.149524
-307.149524
-307.445714
-307.445714
-305.372381
-303.299048
-302.410476
-299.152381
-294.709524
-291.747619
-285.231429
-280.196190
-273.383810
-265.979048
-255.908571
-248.207619
-238.433333
-227.474286
-215.330476
-202.001905
-187.488571
-174.160000
-159.350476
-145.133333
-130.916190
-113.144762
-95.077143
-77.601905
-63.384762
-49.167619
-32.284762
-15.698095
-2.369524
12.556808
27.157746
41.174648
53.439437
67.164319
81.181221
93.153991
104.834742
117.683568
128.780282
142.213146
155.353991
166.158685
176.963380
192.148357
207.333333
219.014085
230.110798
237.119249
248.507981
256.684507
263.692958
272.745540
280.338028
288.806573
294.354930
300.779343
305.743662
306.619718
309.247887
310.415962
310.707981
310.123944
309.831925
309.831925
308.371831
305.743662
303.991549
302.239437
298.735211
294.062911
288.514554
283.258216
277.125822
268.073239
260.480751
251.428169
241.791549
231.278873
219.598122
205.873239
192.148357
178.131455
161.778404
148.637559
136.080751
117.099531
99.578404
84.685446
68.332394
55.191549
37.962441
22.485446
6.132394
-7.997143
-21.918095
-37.320000
-49.463810
-62.792381
-76.713333
-87.968571
-101.000952
-113.737143
-124.992381
-139.801905
-152.538095
-162.904762
-175.048571
-187.784762
-203.779048
-215.034286
-225.697143
-235.471429
-244.060952
-253.539048
-262.128571
-269.533333
-276.938095
-285.823810
-290.859048
-297.079048
-301.225714
-303.891429
-305.372381
-306.260952
-307.149524
-306.557143
-305.964762
-305.964762
-304.187619
-303.002857
-300.929524
-297.967619
-295.005714
-289.674286
-284.639048
-279.900000
-273.976190
-265.090476
-256.500952
-247.615238
-238.433333
-227.178095
-216.219048
-202.594286
-187.784762
-173.567619
-158.165714
-145.725714
-131.508571
-113.144762
-95.077143
-78.786667
-63.680952
-48.871429
-32.580952
-17.475238
-0.592381
13.140845
26.865728
41.174648
55.191549
68.332394
80.013146
93.153991
105.418779
117.391549
129.948357
141.921127
153.893897
166.742723
176.671362
191.272300
207.333333
219.890141
229.818779
239.455399
247.631925
257.560563
265.153052
273.621596
280.630047
287.930516
296.691080
301.363380
306.035681
307.495775
309.247887
311.000000
310.415962
310.123944
310.123944
309.831925
307.787793
306.911737
304.283568
302.239437
298.151174
294.354930
289.390610
284.134272
277.125822
269.825352
259.604695
252.012207
242.667606
229.234742
218.430047
205.873239
191.564319
176.963380
160.902347
148.929577
133.744601
117.099531
99.578404
81.473239
67.748357
52.271362
35.918310
21.901408
5.256338
-8.589524
-23.991429
-38.208571
-52.129524
-65.754286
-78.786667
-91.522857
-103.074286
-114.033333
-127.658095
-139.801905
-152.834286
-163.200952
-174.456190
-190.154286
-205.852381
-216.811429
-226.881905
-235.767619
-244.949524
-253.539048
-261.240000
-268.940952
-276.345714
-284.639048
-292.636190
-297.079048
-302.114286
-304.483810
-306.853333
-306.557143
-307.149524
-307.445714
-307.149524
-306.557143
-305.964762
-303.299048
-300.929524
-298.560000
-295.301905
-290.562857
-285.527619
-280.492381
-272.495238
-264.201905
-255.020000
-246.726667
-236.063810
-226.585714
-215.034286
-201.409524
-188.673333
-172.086667
-157.869524
-143.948571
-129.435238
-112.256190
-94.484762
-78.194286
-63.384762
-47.094286
-30.803810
-16.882857
-0.888571
14.600939
28.325822
42.634742
56.359624
68.916432
82.057277
94.322066
106.002817
118.851643
129.656338
142.213146
155.353991
166.742723
178.423474
192.148357
208.209390
220.182160
230.402817
238.871362
248.800000
257.268545
264.861033
272.745540
281.798122
290.558685
