291.360980
183.199811
-25.667946
3.810556
251.496701
199.907634
224.822809
211.632422
197.269557
182.613572
168.250707
153.301602
139.231857
122.230914
105.816211
88.522149
73.573044
59.503299
44.847314
27.260132
11.138549
-2.387716
-15.818618
-33.129559
-45.665067
-61.782150
-73.123800
-89.240883
-104.462572
-114.610365
-123.862764
-138.487524
-155.500000
-162.364683
-180.869482
-189.524952
-208.925144
-215.491363
-230.713052
-238.174664
-244.740883
-254.291747
-266.230326
-267.424184
-273.691939
-284.436660
-289.212092
-291.898273
-296.972169
-296.375240
-301.150672
-297.867562
-293.987524
-290.107486
-291.301344
-290.704415
-286.227447
-276.079655
-272.498081
-261.156430
-248.023992
-240.860845
-229.220729
-211.611324
-191.315739
-173.407869
-156.096929
-135.204415
-121.773512
-99.985605
-81.779271
-68.049904
-45.665067
-27.757198
-13.729367
2.931197
16.707823
29.311970
47.192271
56.865221
66.245052
75.038643
89.108388
93.212064
106.109331
113.730443
118.420358
128.093308
136.007540
142.749293
147.146089
149.491046
156.819039
164.733270
172.940622
177.337418
184.665410
189.648445
197.269557
210.459943
225.702168
238.892554
247.099906
254.427898
260.583412
270.256362
279.049953
282.274270
289.016023
292.826579
299.275212
301.327050
308.068803
310.120641
305.430726
304.551367
306.603205
305.723845
308.655042
309.534402
305.430726
305.137606
304.844486
299.861451
296.050895
293.119698
284.619227
279.049953
271.135721
262.342130
253.841659
245.341188
236.254477
225.995287
211.925542
201.080113
188.182846
172.061263
158.577757
143.335533
129.265787
113.437323
97.608860
80.314797
65.365693
50.123468
34.295005
19.345900
4.396795
-11.341651
-24.772553
-38.800384
-54.320537
-68.945298
-81.480806
-95.210173
-106.551823
-119.087332
-131.324376
-146.844530
-158.783109
-170.721689
-182.361804
-196.986564
-211.909789
-222.952975
-231.309981
-243.547025
-249.814779
-260.857965
-266.230326
-277.571977
-283.541267
-288.316699
-296.972169
-303.538388
-303.836852
-305.627639
-307.418426
-308.313820
-310.104607
-308.015355
-308.910749
-308.612284
-305.627639
-304.433781
-303.538388
-298.166027
-292.495202
-286.227447
-281.750480
-272.199616
-264.738004
-251.605566
-243.547025
-232.205374
-219.669866
-204.746641
-191.017274
-176.690979
-159.976967
-142.666027
-127.444338
-111.625720
-94.016315
-73.720729
-55.215931
-39.397313
-23.578695
-9.252399
7.914232
23.156456
37.519321
50.709708
62.434496
73.866164
85.884072
96.143261
107.574929
118.713478
129.558907
139.818096
149.784166
161.508954
173.819981
183.786051
193.752121
207.821866
221.598492
229.219604
238.306315
249.151744
255.307257
263.807729
272.601320
277.291235
284.326107
291.654100
297.223374
301.327050
304.258247
306.603205
307.775683
308.948162
308.361923
308.655042
308.068803
308.361923
305.723845
304.258247
301.913289
298.982092
295.757776
290.774741
285.205467
279.343073
272.894439
264.100848
253.841659
244.754948
235.668238
223.357210
212.804901
199.907634
186.424128
171.181904
155.939680
143.628652
128.386428
111.678605
94.384543
78.556079
64.486334
50.709708
35.174364
18.466541
4.103676
-11.341651
-25.369482
-39.397313
-53.425144
-66.557582
-79.690019
-93.717850
-107.447217
-119.087332
-132.518234
-145.949136
-158.783109
-169.229367
-183.555662
-198.180422
-213.402111
-223.848369
-232.802303
-242.353167
-251.605566
-260.857965
-268.916507
-275.184261
-282.048944
-291.301344
-297.270633
-302.344530
-304.732246
-305.627639
-308.612284
-309.507678
-309.209213
-309.209213
-308.612284
-306.523033
-305.627639
-304.433781
-301.747601
-300.255278
-294.882917
-289.212092
-281.452015
-276.975048
-266.827255
-256.977927
-248.023992
-235.786948
-226.236084
-212.805182
-199.075816
-184.451056
-170.124760
-154.306142
-139.681382
-122.967370
-107.148752
-87.748560
-71.034549
-54.320537
-38.800384
-24.772553
-8.058541
7.327992
22.570217
36.933082
51.589067
64.779453
75.331762
88.229029
100.246937
110.506126
122.230914
134.835061
145.973610
157.991517
170.009425
180.268615
191.114043
205.770028
218.374175
228.047125
236.254477
246.513666
255.600377
264.100848
271.721960
279.049953
284.326107
291.067861
297.223374
302.792648
304.258247
306.603205
307.482564
308.068803
308.361923
309.534402
306.603205
306.603205
306.310085
303.378888
301.620170
300.154571
295.464656
290.188501
285.498586
279.929312
270.256362
263.514609
252.962300
243.875589
233.323280
223.064090
210.753063
197.855796
183.786051
169.130066
154.474081
141.869934
126.334590
109.040528
93.505184
79.142319
62.434496
47.778511
31.656927
16.414703
1.172479
-14.027831
-28.055662
-41.785029
-55.812860
-70.139155
-82.674664
-96.404031
-109.536468
-122.668906
-135.204415
-147.739923
-162.364683
-171.318618
-185.943378
-200.568138
-216.088292
-225.340691
-233.697697
-244.442418
-255.187140
-263.842610
-271.304223
-275.781190
-284.735125
-292.196737
-297.569098
-303.836852
-305.329175
-306.821497
-307.119962
-311.000000
-308.910749
-309.507678
-309.507678
-308.015355
-305.329175
-303.836852
-302.941459
-298.762956
-295.181382
-289.510557
-282.645873
-276.975048
-269.811900
-256.977927
-250.113244
-239.070058
-226.833013
-216.088292
-201.463532
-187.734165
-172.512476
-157.887716
-142.964491
-128.339731
-110.730326
-92.822457
-75.511516
-59.991363
-43.575816
-28.652591
-13.132438
2.344958
18.173421
31.070688
46.312912
57.158341
70.641847
83.539114
96.729500
107.574929
118.713478
131.024505
143.042413
156.819039
167.371348
177.923657
190.527804
204.011310
216.908577
227.167766
235.375118
244.754948
254.427898
262.928369
269.963242
276.998115
283.739868
291.360980
298.982092
301.620170
304.844486
307.189444
308.655042
308.655042
308.068803
307.482564
308.068803
308.068803
304.844486
303.672008
300.740811
299.275212
295.757776
289.602262
285.498586
277.877474
270.549482
261.169651
252.669180
244.461828
232.150801
221.598492
209.873704
195.217719
183.199811
167.078228
154.474081
139.231857
124.575872
107.574929
90.280867
75.038643
60.089538
46.606032
31.363808
14.362865
-0.000000
-16.714012
-30.443378
-43.874280
-57.902111
-72.825336
-85.062380
-97.597889
-110.431862
-122.967370
-136.099808
-149.829175
-161.170825
-173.109405
-186.838772
-203.851248
-215.192898
-226.236084
-234.294626
-244.442418
-256.082534
-262.648752
-270.110365
-277.571977
-285.928983
-292.495202
-297.569098
-304.732246
-305.627639
-307.716891
-309.209213
-309.507678
-309.507678
-309.209213
-308.910749
-309.209213
-305.926104
-305.329175
-302.344530
-298.464491
-294.584453
-290.704415
-283.242802
-276.676583
-268.618042
-259.962572
-249.217850
-238.174664
-229.220729
-216.386756
-202.358925
-188.629559
-173.109405
-158.484645
-143.262956
-129.533589
-111.327255
-94.613244
-77.003839
-60.588292
-47.157390
-30.443378
-13.132438
2.051838
16.121583
30.191329
45.433553
58.330820
71.521206
83.539114
95.557022
108.747408
119.299717
130.731385
143.921772
155.060320
167.957587
176.458058
190.234684
206.063148
218.374175
227.754006
236.254477
246.220547
255.893497
263.807729
270.549482
277.877474
284.326107
293.119698
298.102733
302.206409
304.551367
306.896324
308.655042
308.655042
307.775683
307.775683
306.896324
306.603205
304.844486
303.672008
300.447691
298.102733
294.585297
290.481621
284.326107
277.291235
269.377003
259.997172
252.082941
242.703110
230.978322
221.598492
208.408106
196.097078
181.147974
166.491989
152.129123
139.818096
123.110273
106.402451
89.987747
75.331762
59.796418
45.726673
29.311970
14.362865
-1.193858
-14.923225
-31.637236
-44.471209
-57.305182
-71.929942
-85.360845
-97.000960
-110.730326
-123.564299
-135.801344
-150.127639
-162.961612
-172.214012
-187.137236
-204.149712
-215.789827
-227.131478
-235.190019
-245.934741
-255.784069
-264.141075
-270.707294
-277.571977
-284.436660
-293.689060
-297.569098
-303.239923
-305.030710
-308.313820
-308.313820
-309.507678
-308.910749
-308.313820
-307.119962
-307.418426
-305.926104
-302.344530
-300.553743
-297.270633
-293.689060
-288.615163
-280.855086
-276.378119
-268.618042
-260.261036
-249.516315
-239.666987
-228.623800
-217.580614
-203.254319
-189.524952
-175.795585
-159.380038
-144.158349
-129.533589
-112.819578
-94.314779
-77.600768
-62.677543
-46.560461
-31.637236
-15.818618
-0.000000
14.655985
31.070688
42.795476
55.106503
69.176249
82.073516
96.143261
106.695570
117.540999
130.145146
143.042413
155.353440
166.785108
176.751178
189.941565
204.597549
218.667295
226.581527
237.133836
245.634307
255.014138
265.566447
270.842601
276.998115
286.084826
292.533459
298.395853
304.844486
305.430726
307.189444
308.361923
309.534402
308.361923
308.948162
308.361923
307.189444
304.258247
303.085768
301.620170
298.688973
293.412818
289.309142
283.739868
276.998115
269.083883
259.117813
251.203582
240.944392
229.805844
219.253534
207.821866
194.631480
179.096136
166.491989
152.129123
137.766258
121.644675
105.523091
87.642790
73.866164
58.037700
42.795476
28.139491
10.552309
-4.476967
-17.310940
-32.532630
-44.471209
-59.692898
-73.123800
-86.853167
-100.284069
-112.819578
-123.564299
-138.487524
-151.023033
-164.453935
-173.109405
-188.331094
-204.746641
-216.386756
-226.236084
-236.085413
-246.233205
-256.082534
-265.334933
-270.707294
-277.870441
-285.928983
-292.793666
-298.166027
-302.941459
-305.627639
-307.418426
-308.313820
-308.015355
-306.821497
-307.716891
-309.209213
-307.119962
-305.627639
-303.538388
-300.255278
-298.464491
-293.092131
-286.525912
-280.556622
-275.482726
-267.424184
-256.977927
-248.620921
-237.279271
-227.728407
-216.386756
-201.761996
-188.331094
-172.512476
-157.290787
-144.158349
-128.339731
-113.416507
-93.419386
-77.899232
-61.483685
-46.858925
-31.637236
-14.923225
1.465598
16.121583
29.311970
42.795476
57.451461
69.176249
84.125353
96.143261
108.161169
119.592837
131.317625
145.094251
156.232799
167.371348
178.509896
191.993402
206.942507
218.374175
227.167766
237.720075
246.220547
255.893497
265.566447
272.015080
279.929312
286.084826
293.705938
299.568332
302.792648
305.430726
306.603205
306.896324
306.896324
307.482564
308.361923
307.775683
307.189444
305.723845
304.844486
302.499529
299.568332
294.878417
288.722903
282.860509
276.704995
268.204524
259.704053
250.031103
240.651272
229.219604
218.081056
206.649387
193.752121
177.923657
165.026390
149.491046
136.300660
119.885957
102.885014
85.297832
70.348728
55.692743
39.571159
25.501414
8.793591
-6.267754
-20.892514
-35.218810
-47.455854
-62.976008
-76.108445
-89.539347
-101.776392
-113.714971
-127.145873
-140.875240
-154.604607
-166.543186
-174.900192
-191.614203
-206.238964
-218.774472
-226.833013
-238.473129
-247.128599
-257.574856
-265.633397
-272.796545
-279.362764
-285.630518
-295.181382
-299.061420
-304.135317
-306.523033
-307.119962
-308.612284
-309.806142
-308.910749
-308.313820
-306.821497
-308.015355
-305.926104
-303.836852
-302.046065
-297.867562
-293.689060
-288.316699
-282.944338
-275.781190
-267.424184
-256.977927
-246.830134
-237.876200
-225.937620
-213.402111
-200.866603
-186.838772
-171.915547
-157.290787
-142.367562
-128.638196
-110.431862
-93.419386
-77.003839
-60.588292
-46.261996
-30.144914
-12.535509
0.879359
17.294062
31.363808
44.261074
58.330820
69.176249
84.125353
97.022620
109.040528
120.472196
131.610745
144.214892
158.284637
167.957587
179.389255
192.286522
208.408106
218.667295
229.219604
237.720075
247.686145
257.652215
267.032045
273.187559
279.636192
286.964185
294.878417
298.982092
303.965127
307.189444
307.482564
308.655042
308.361923
309.241282
306.896324
308.361923
307.775683
306.016965
304.258247
301.620170
298.982092
294.292177
288.722903
282.860509
276.704995
266.738926
258.824694
250.031103
239.771913
228.633365
217.494816
204.890669
191.700283
177.044298
164.147031
148.611687
135.714420
118.420358
101.126296
85.297832
70.055608
55.692743
38.984920
23.742696
7.914232
-6.864683
-22.086372
-36.412668
-48.948177
-63.572937
-76.406910
-88.942418
-100.582534
-116.102687
-126.548944
-139.681382
-153.709213
-164.752399
-176.094050
-191.315739
-205.940499
-218.177543
-227.728407
-236.980806
-248.919386
-258.171785
-265.036468
-273.691939
-278.765835
-286.227447
-293.689060
-299.658349
-303.239923
-304.732246
-308.015355
-307.716891
-308.910749
-308.612284
-308.313820
-306.523033
-306.224568
-305.926104
-304.732246
-300.852207
-297.270633
-293.987524
-287.122841
-280.556622
-275.184261
-266.528791
-255.485605
-248.023992
-236.383877
-225.937620
-213.999040
-199.672745
-187.734165
-171.318618
-156.992322
-142.367562
-127.742802
-108.939539
-91.927063
-76.406910
-60.289827
-43.874280
-29.249520
-12.833973
2.051838
17.294062
30.777568
45.433553
58.037700
70.934967
84.418473
98.195099
110.213007
121.058435
132.783223
145.387370
158.577757
169.716305
180.561734
194.924599
209.873704
221.891612
229.805844
239.771913
250.617342
258.238454
267.325165
274.360038
281.981150
288.429783
296.344015
301.620170
304.551367
306.603205
307.189444
309.241282
310.706880
308.948162
309.241282
308.948162
306.896324
304.258247
302.499529
301.620170
296.930254
292.826579
287.257304
281.981150
275.825636
266.738926
259.117813
247.686145
237.720075
227.754006
216.908577
203.425071
189.941565
175.578699
160.629595
146.559849
132.196984
115.782281
99.660697
81.780396
66.245052
51.589067
37.519321
21.983977
4.983035
-9.550864
-23.877159
-37.904990
-51.634357
-65.960653
-79.093090
-92.523992
-103.865643
-116.401152
-129.235125
-142.964491
-155.798464
-168.632438
-178.481766
-193.106526
-208.925144
-220.863724
-228.623800
-238.473129
-248.919386
-259.067179
-265.931862
-273.095010
-280.855086
-287.719770
-295.181382
-301.150672
-304.135317
-306.523033
-308.313820
-309.806142
-308.612284
-310.701536
-308.612284
-306.821497
-306.224568
-303.836852
-301.449136
-299.061420
-296.673704
-291.898273
-285.928983
-280.258157
-272.199616
-263.842610
-256.082534
-246.830134
-236.383877
-225.639155
-213.700576
-200.568138
-185.943378
-172.512476
-156.395393
-142.666027
-128.041267
-109.834933
-92.523992
-75.213052
-58.797505
-45.366603
-29.547985
-13.729367
2.931197
17.000943
31.363808
44.554194
58.917059
71.814326
83.832234
97.608860
109.626767
120.179076
131.317625
145.094251
158.577757
168.543827
179.682375
194.338360
210.166824
220.426013
229.805844
239.478794
250.324222
259.704053
267.032045
274.360038
281.981150
290.188501
295.464656
300.740811
304.844486
306.310085
307.189444
306.896324
307.482564
308.948162
307.482564
308.068803
308.068803
305.430726
303.378888
301.913289
298.688973
293.705938
287.843544
282.567389
274.653157
266.738926
257.065975
247.686145
239.185674
228.047125
214.563619
202.252592
188.769086
172.940622
158.577757
145.094251
130.438266
113.437323
97.022620
79.728558
65.072573
49.830349
34.588124
19.052780
3.517436
-11.341651
-24.772553
-40.292706
-52.231286
-68.049904
-80.883877
-93.419386
-106.551823
-119.385797
-130.130518
-144.456814
-157.887716
-168.930902
-179.675624
-194.598848
-211.014395
-222.952975
-230.713052
-241.159309
-249.814779
-259.067179
-266.827255
-273.990403
-280.258157
-288.913628
-295.778311
-300.852207
-305.329175
-308.015355
-308.910749
-309.806142
-309.806142
-310.403071
-308.910749
-308.313820
-306.224568
-304.433781
-302.642994
-298.762956
-295.479846
-291.898273
-285.332054
-278.765835
-272.796545
-265.334933
-255.784069
-246.233205
-235.488484
-224.146833
-212.506718
-198.180422
-184.451056
-169.826296
-153.709213
-141.472169
-124.161228
-108.044146
-89.837812
-74.616123
-58.200576
-43.277351
-27.458733
-11.341651
3.517436
19.052780
32.829406
46.019793
59.503299
73.279925
85.884072
99.953817
110.799246
122.230914
134.541942
146.852969
160.043355
170.888784
181.734213
196.683318
211.046183
222.477851
230.098963
239.185674
250.324222
259.410933
268.790763
276.118756
282.274270
290.188501
296.637135
301.033930
304.551367
306.016965
307.189444
308.068803
308.361923
308.068803
307.775683
309.241282
306.896324
305.137606
304.844486
301.620170
298.982092
293.999057
288.136664
280.808671
275.239397
265.566447
255.307257
246.513666
236.254477
226.874647
213.977380
200.786993
187.303487
172.940622
159.457116
144.214892
129.558907
111.971725
96.436381
78.262959
64.193214
47.778511
32.829406
17.000943
0.879359
-13.132438
-27.458733
-40.292706
-52.828215
-67.751440
-80.883877
-92.523992
-105.656430
-118.191939
-131.324376
-143.561420
-157.290787
-167.140115
-180.869482
-195.195777
-209.820537
-222.356046
-230.713052
-240.860845
-250.411708
-259.962572
-267.722649
-274.885797
-280.855086
-289.809021
-295.778311
-301.449136
-305.030710
-307.418426
-308.910749
-308.015355
-308.612284
-308.313820
-307.119962
-308.015355
-305.926104
-302.941459
-301.449136
-298.762956
-296.375240
-289.809021
-284.735125
-279.064299
-270.707294
-262.051823
-255.187140
-244.442418
-234.593090
-222.057582
-211.909789
-197.285029
-184.152591
-169.527831
-153.112284
-139.979846
-122.967370
-107.148752
-88.643954
-73.720729
-57.603647
-42.978887
-27.757198
-9.849328
4.983035
18.759661
32.536287
46.899152
60.968897
72.986805
85.884072
99.660697
110.506126
122.817154
135.128181
148.025448
160.043355
170.888784
182.320452
197.855796
211.046183
222.184731
230.978322
240.944392
250.324222
261.462771
266.738926
276.118756
282.274270
290.481621
296.344015
301.620170
304.551367
305.430726
308.068803
308.361923
308.068803
307.482564
307.189444
308.948162
306.310085
303.965127
302.499529
300.740811
297.516494
292.240339
286.964185
280.515551
274.066918
264.980207
255.600377
245.927427
236.547597
225.115928
213.098021
199.907634
186.717248
171.181904
157.405278
142.749293
128.679548
110.213007
94.677663
77.383600
62.434496
47.778511
32.536287
17.880302
1.172479
-12.535509
-28.354127
-41.785029
-55.812860
-68.945298
-81.480806
-94.613244
-106.850288
-120.281190
-132.219770
-145.053743
-157.290787
-168.930902
-179.974088
-197.285029
-210.715931
-223.549904
-232.205374
-239.965451
-251.307102
-259.365643
-269.214971
-274.288868
-280.855086
-290.107486
-296.076775
-300.852207
-305.030710
-307.418426
-307.119962
-308.612284
-307.119962
-308.015355
-307.418426
-306.224568
-306.224568
-303.538388
-300.255278
-299.359885
-294.584453
-289.809021
-284.436660
-277.870441
-270.408829
-261.454894
-254.590211
-244.442418
-232.802303
-222.057582
-210.417466
-195.792706
-181.764875
-167.737044
-152.813820
-138.785988
-122.071977
-104.164107
-87.151631
-72.228407
-55.215931
-40.292706
-25.369482
-9.550864
6.741753
21.397738
35.174364
48.364750
62.434496
74.452403
89.694628
100.540057
111.385485
124.868992
137.766258
149.197926
162.974552
172.354383
185.251649
199.321395
213.684260
224.236569
233.030160
243.582469
253.255419
262.342130
270.256362
277.291235
285.205467
290.774741
297.809614
302.792648
304.844486
306.310085
307.482564
309.241282
308.655042
307.482564
309.827521
308.655042
306.603205
303.965127
304.258247
300.740811
297.516494
291.947220
285.791706
279.636192
272.308200
263.514609
254.721018
245.927427
234.495759
223.943450
211.632422
198.442036
184.372290
169.130066
154.767201
140.111216
127.213949
107.868049
92.332705
75.918002
60.089538
46.019793
30.484449
14.655985
-1.193858
-15.818618
-30.443378
-43.874280
-56.708253
-71.631478
-84.465451
-96.702495
-108.044146
-121.475048
-134.309021
-147.739923
-160.872361
-171.020154
-184.451056
-198.478887
-213.402111
-223.848369
-232.802303
-242.054702
-252.202495
-261.753359
-268.618042
-275.184261
-281.750480
-290.107486
-297.270633
-300.852207
-305.329175
-307.119962
-308.612284
-309.507678
-309.806142
-308.612284
-308.910749
-306.224568
-305.329175
-302.941459
-302.046065
-297.270633
-294.584453
-288.913628
-284.735125
-277.571977
-269.811900
-261.156430
-252.202495
-243.248560
-231.608445
-221.460653
-208.626679
-195.792706
-179.974088
-166.244722
-149.530710
-136.995202
-118.788868
-101.477927
-85.957774
-68.945298
-54.022073
-38.800384
-23.877159
-7.760077
8.207352
22.863336
37.519321
48.950990
63.313855
76.797361
89.108388
102.005655
113.144204
125.748351
137.766258
151.249764
162.388313
173.526861
184.958530
201.373233
213.977380
224.822809
233.616400
244.168709
254.134779
264.100848
270.549482
276.998115
284.912347
292.240339
298.982092
302.499529
305.430726
307.775683
307.775683
308.948162
309.241282
308.655042
308.948162
308.655042
306.896324
305.430726
302.206409
300.740811
297.223374
291.947220
285.791706
279.343073
274.360038
262.049010
254.134779
244.168709
234.202639
221.891612
210.753063
197.562677
182.613572
168.836946
153.594722
140.697455
124.282752
106.109331
90.573987
74.159284
59.796418
46.019793
29.311970
12.604147
-1.492322
-16.117083
-30.741843
-44.471209
-58.499040
-72.825336
-85.360845
-97.597889
-110.133397
-122.071977
-133.712092
-147.142994
-160.275432
-171.617083
-184.451056
-200.568138
-214.595969
-225.042226
-233.697697
-242.651631
-253.396353
-261.454894
-269.513436
-274.587332
-282.347409
-291.599808
-296.972169
-302.046065
-305.926104
-307.418426
-308.015355
-310.104607
-308.612284
-308.313820
-308.015355
-305.329175
-306.224568
-303.538388
-299.956814
-298.166027
-293.689060
-288.615163
-281.452015
-276.079655
-269.214971
-259.365643
-251.605566
-240.860845
-231.608445
-219.968330
-207.731286
-194.897313
-180.869482
-166.244722
-149.829175
-136.696737
-119.982726
-102.074856
-85.062380
-68.945298
-54.022073
-38.501919
-23.578695
-8.357006
8.207352
22.277097
35.760603
49.244109
63.313855
76.504241
89.108388
100.540057
112.264844
124.282752
137.180019
149.784166
162.681433
173.526861
185.544769
201.959472
215.149859
224.822809
233.909519
244.168709
255.307257
263.807729
269.377003
278.756833
285.205467
292.240339
298.102733
302.206409
304.844486
306.603205
308.068803
308.655042
308.361923
308.361923
308.948162
307.482564
307.189444
305.430726
302.792648
299.861451
296.344015
290.481621
284.912347
279.343073
270.256362
261.169651
252.962300
242.703110
233.616400
221.598492
209.580584
196.683318
182.613572
167.078228
152.715363
138.938737
123.403393
105.523091
89.401508
74.159284
58.037700
43.674835
29.311970
12.897267
-1.492322
-16.117083
-31.935701
-45.068138
-59.095969
-72.228407
-84.763916
-96.702495
-109.834933
-122.370441
-135.502879
-148.635317
-161.170825
-171.617083
-185.943378
-201.761996
-215.789827
-224.743762
-234.294626
-244.143954
-253.993282
-262.350288
-269.811900
-276.079655
-284.735125
-290.704415
-298.166027
-304.433781
-306.224568
-307.716891
-308.015355
-308.313820
-307.716891
-307.119962
-306.523033
-306.821497
-304.433781
-304.433781
-301.449136
-298.464491
-293.689060
-288.316699
-283.242802
-275.781190
-266.827255
-258.470250
-250.411708
-239.666987
-230.414587
-219.072937
-207.731286
-193.106526
-177.884837
-163.857006
-149.232246
-135.204415
-117.595010
-101.776392
-83.868522
-68.049904
-51.634357
-36.114203
-22.086372
-5.073896
9.379830
24.915174
36.639962
51.002828
65.072573
77.969840
89.987747
104.350613
115.489161
126.627710
140.697455
152.422243
165.319510
174.406221
186.717248
202.545712
215.736098
225.995287
234.788878
244.461828
255.307257
263.514609
270.842601
278.170594
285.791706
294.292177
298.688973
303.085768
304.551367
307.189444
306.896324
307.775683
309.534402
309.241282
309.241282
307.482564
305.430726
305.137606
302.499529
298.982092
294.292177
289.602262
284.912347
278.463713
269.963242
261.755891
252.669180
241.530631
232.737041
221.598492
208.701225
194.631480
179.975495
165.905749
151.249764
137.473139
121.058435
103.178134
86.763431
70.641847
55.399623
40.743638
25.208294
8.793591
-4.476967
-19.101727
-33.726488
-46.858925
-60.588292
-75.809981
-87.450096
-100.582534
-111.924184
-125.355086
-139.084453
-151.023033
-164.155470
-174.303263
-187.137236
-204.448177
-215.192898
-226.534549
-234.294626
-246.830134
-255.187140
-262.350288
-271.005758
-277.870441
-284.735125
-293.689060
-297.270633
-302.642994
-305.329175
-306.821497
-308.612284
-308.910749
-308.910749
-309.806142
-307.119962
-305.926104
-305.926104
-302.642994
-300.553743
-297.569098
-292.793666
-285.928983
-280.855086
-275.184261
-267.125720
-259.365643
-250.113244
-238.771593
-229.519194
-218.476008
-205.940499
-191.315739
-176.392514
-161.767754
-147.739923
-134.010557
-116.401152
-99.687140
-82.376200
-66.557582
-51.634357
-35.815739
-19.997121
-5.073896
10.845429
25.501414
38.984920
52.175306
65.951932
78.849199
91.160226
103.471254
114.609802
127.507069
139.818096
152.715363
164.733270
174.406221
189.941565
204.011310
216.908577
226.288407
235.961357
246.513666
257.359095
265.566447
272.308200
278.756833
288.429783
294.585297
299.568332
303.378888
306.016965
307.775683
308.948162
308.655042
307.189444
308.361923
308.655042
307.189444
306.016965
303.378888
301.620170
299.568332
295.464656
291.067861
284.032988
277.877474
269.377003
260.290292
250.910462
240.358153
231.271442
218.374175
206.063148
193.752121
178.216777
162.388313
147.732328
135.128181
118.127238
101.419416
84.711593
69.469369
53.934025
38.984920
24.622055
6.741753
-6.566219
-21.190979
-36.114203
-49.545106
-62.677543
-77.003839
-90.434741
-102.373321
-114.610365
-125.355086
-139.979846
-152.813820
-164.453935
-174.601727
-189.226488
-205.045106
-216.685221
-227.131478
-235.488484
-244.143954
-255.187140
-263.842610
-270.110365
-278.467370
-285.332054
-293.987524
-299.359885
-305.926104
-305.926104
-308.313820
-307.716891
-309.806142
-308.612284
-308.910749
-307.119962
-305.926104
-305.627639
-302.642994
-299.956814
-297.867562
-291.898273
-287.719770
-281.153551
-274.587332
-266.827255
-258.470250
-249.516315
-239.666987
-227.728407
-215.491363
-203.851248
-189.524952
-175.198656
-161.170825
-146.247601
-131.622841
-115.207294
-96.105566
-79.690019
-64.766795
-49.545106
-34.323417
-18.504798
-1.790787
12.897267
28.432611
41.036758
54.520264
66.831291
81.194156
94.091423
104.643732
117.540999
131.024505
143.042413
155.646560
166.785108
176.751178
191.407163
206.063148
218.667295
228.340245
238.013195
247.393025
257.359095
265.273327
273.187559
279.049953
287.550424
293.705938
300.447691
303.378888
306.310085
306.896324
308.655042
308.655042
308.948162
308.361923
309.827521
307.482564
307.189444
305.137606
303.085768
299.861451
293.999057
290.481621
283.446748
277.877474
269.083883
259.704053
249.737983
241.237512
230.098963
219.253534
205.770028
191.407163
177.630537
162.388313
149.784166
135.714420
118.127238
101.712535
83.539114
69.176249
53.934025
38.398680
23.449576
7.034873
-7.760077
-22.086372
-35.517274
-48.649712
-63.274472
-76.406910
-89.837812
-102.671785
-114.908829
-128.339731
-140.576775
-153.709213
-165.349328
-175.795585
-189.823417
-205.343570
-216.983685
-227.728407
-236.383877
-247.725528
-255.485605
-264.738004
-271.304223
-278.467370
-285.630518
-292.793666
-298.762956
-302.642994
-306.523033
-308.015355
-308.612284
-307.119962
-308.313820
-308.612284
-306.224568
-306.224568
-304.433781
-302.046065
-299.061420
-295.778311
-291.898273
-284.436660
-279.959693
-273.990403
-264.738004
-256.679463
-248.322457
-238.174664
-228.026871
-216.088292
-203.254319
-189.226488
-174.303263
-158.186180
-145.352207
-130.727447
-114.013436
-95.807102
-80.585413
-65.065259
-49.545106
-32.831094
-16.714012
-1.193858
13.483506
26.967012
41.916117
55.692743
69.176249
81.194156
93.798303
105.523091
116.368520
129.558907
142.456173
155.353440
165.905749
178.509896
190.820924
207.235627
218.960415
228.633365
238.306315
247.393025
256.772856
266.152686
273.187559
280.222432
288.429783
293.999057
300.154571
306.016965
307.189444
308.655042
309.241282
308.068803
308.655042
309.534402
307.775683
307.775683
304.551367
303.672008
301.033930
297.809614
294.292177
289.016023
284.326107
276.411876
267.325165
258.824694
249.737983
240.651272
229.219604
218.081056
205.183789
190.820924
176.164939
161.215834
146.852969
134.835061
116.661640
99.367578
83.245994
68.003770
53.640905
37.519321
22.570217
6.155514
-8.058541
-22.981766
-37.009597
-50.440499
-64.766795
-77.899232
-89.837812
-102.671785
-116.401152
-127.742802
-140.576775
-154.007678
-165.647793
-175.497121
-191.017274
-205.940499
-217.580614
-227.429942
-236.980806
-247.427063
-254.888676
-265.334933
-272.199616
-279.064299
-285.332054
-293.092131
-298.166027
-302.941459
-303.239923
-305.329175
-308.313820
-308.313820
-308.015355
-308.612284
-308.313820
-306.224568
-304.433781
-301.747601
-299.359885
-295.778311
-290.704415
-285.928983
-278.168906
-273.990403
-266.230326
-255.784069
-246.830134
-235.488484
-227.131478
-214.297505
-201.165067
-188.032630
-172.810940
-157.589251
-144.158349
-128.339731
-112.222649
-94.016315
-77.899232
-60.289827
-45.963532
-31.338772
-13.729367
0.586239
15.828464
29.311970
43.088596
56.572102
70.055608
83.245994
95.850141
106.988690
119.006598
131.317625
145.387370
157.991517
167.664467
179.682375
193.459001
208.994345
220.719133
229.219604
239.478794
249.737983
259.997172
267.032045
274.360038
281.688030
289.895382
295.757776
301.033930
305.723845
307.482564
308.361923
308.655042
309.241282
309.241282
308.655042
308.655042
307.775683
306.896324
303.378888
301.620170
298.395853
294.585297
288.429783
281.981150
275.239397
266.152686
258.531574
249.151744
239.771913
228.047125
215.442978
204.304430
190.234684
174.406221
160.922714
144.508011
132.196984
113.437323
97.315740
80.901037
65.365693
51.295947
34.588124
19.345900
4.103676
-10.744722
-25.966411
-39.994242
-53.723608
-67.452975
-80.883877
-93.419386
-106.253359
-117.595010
-130.727447
-143.859885
-156.693858
-166.543186
-178.481766
-192.211132
-209.223608
-220.266795
-228.922265
-239.070058
-249.516315
-257.276392
-266.230326
-273.393474
-279.362764
-287.719770
-294.584453
-297.867562
-303.538388
-305.329175
-307.716891
-306.224568
-308.313820
-308.612284
-307.716891
-307.716891
-305.926104
-303.836852
-302.344530
-300.255278
-296.375240
-291.898273
-285.033589
-278.765835
-273.990403
-265.036468
-255.485605
-246.531670
-236.085413
-225.639155
-212.506718
-198.478887
-185.644914
-170.423225
-155.500000
-142.666027
-127.145873
-109.834933
-91.628599
-76.406910
-59.991363
-44.769674
-29.846449
-14.027831
2.344958
17.294062
31.070688
45.140434
59.210179
72.693685
84.711593
97.315740
109.040528
121.058435
133.955702
147.439208
159.163996
170.302545
181.441093
195.803959
210.166824
221.598492
230.685203
240.065033
251.203582
261.169651
267.911404
276.411876
282.274270
289.602262
296.344015
301.327050
306.016965
307.775683
308.948162
309.241282
308.655042
309.241282
308.655042
306.603205
307.775683
305.723845
303.965127
301.327050
298.688973
293.412818
287.257304
282.274270
274.653157
264.980207
257.065975
247.393025
238.306315
225.702168
214.856739
202.545712
188.182846
173.233742
158.284637
144.214892
132.196984
112.557964
96.143261
80.021678
63.313855
50.709708
32.536287
17.880302
3.224317
-11.938580
-26.563340
-41.188100
-53.126679
-67.751440
-79.988484
-92.822457
-106.253359
-118.191939
-130.130518
-143.561420
-157.290787
-167.438580
-179.675624
-195.792706
-209.223608
-220.266795
-230.713052
-240.263916
-249.516315
-258.470250
-266.528791
-273.393474
-280.556622
-288.615163
-295.778311
-299.359885
-302.046065
-304.732246
-307.418426
-307.418426
-307.418426
-308.313820
-307.119962
-307.716891
-306.523033
-303.836852
-301.449136
-299.359885
-294.882917
-290.405950
-284.735125
-278.467370
-272.498081
-264.141075
-254.590211
-244.442418
-234.593090
-224.743762
-211.611324
-197.881958
-185.346449
-169.527831
-155.798464
-142.069098
-126.250480
-108.342610
-90.434741
-75.213052
-59.394434
-44.172745
-27.160269
-13.729367
2.344958
17.000943
31.950047
44.554194
58.917059
71.228087
84.418473
97.901979
109.040528
119.299717
133.076343
145.973610
158.870877
168.836946
180.268615
195.510839
211.046183
221.305372
232.150801
240.065033
251.789821
261.462771
269.377003
274.946277
284.032988
289.895382
296.930254
303.085768
306.310085
307.482564
309.241282
309.827521
309.827521
307.482564
309.534402
308.068803
306.016965
306.016965
304.551367
301.327050
297.223374
292.533459
287.550424
280.222432
274.066918
264.687088
256.479736
247.686145
237.426956
225.702168
215.442978
202.545712
187.596607
173.233742
158.284637
143.921772
129.265787
111.971725
94.384543
78.262959
63.020735
49.830349
33.415646
17.587182
2.051838
-12.535509
-26.861804
-42.083493
-54.917466
-68.945298
-82.077735
-93.120921
-106.253359
-117.296545
-131.324376
-144.755278
-157.887716
-167.140115
-181.167946
-194.300384
-210.119002
-220.863724
-230.116123
-238.771593
-249.217850
-258.470250
-266.230326
-274.885797
-279.959693
-288.913628
-295.778311
-298.464491
-302.344530
-305.926104
-305.627639
-306.523033
-308.313820
-308.313820
-306.821497
-305.926104
-305.926104
-303.239923
-301.150672
-298.166027
-294.584453
-288.913628
-283.839731
-278.467370
-271.602687
-262.947217
-252.202495
-243.547025
-231.906910
-223.251440
-210.417466
-197.583493
-184.152591
-167.140115
-154.604607
-140.278311
-124.758157
-106.253359
-89.240883
-74.019194
-58.499040
-42.381958
-27.160269
-11.341651
4.396795
19.345900
33.122526
47.192271
60.089538
73.573044
85.884072
98.488219
110.799246
123.110273
135.714420
148.318567
160.336475
169.716305
183.199811
198.148916
212.218662
223.357210
232.737041
242.703110
253.255419
263.514609
269.963242
276.411876
283.446748
290.774741
297.223374
303.672008
305.430726
306.896324
309.827521
311.000000
309.241282
309.241282
309.241282
309.241282
306.016965
305.137606
303.672008
301.620170
298.395853
292.240339
286.964185
279.343073
272.894439
263.807729
