-302.443074
-211.857685
55.399623
33.708765
-311.000000
-272.641366
-310.704934
-309.819734
-308.049336
-308.934535
-306.574004
-304.213472
-302.148008
-298.607211
-294.181214
-294.771347
-286.214421
-275.592030
-272.346300
-264.084440
-252.281784
-240.479127
-232.217268
-223.660342
-212.447818
-197.989564
-182.055977
-164.351992
-149.008539
-134.255218
-121.272296
-101.207780
-84.684061
-68.455408
-55.177419
-42.489564
-21.539848
-6.786528
5.569274
23.449576
32.243167
50.123468
62.434496
77.676720
85.297832
102.005655
111.092366
121.351555
138.059378
148.611687
162.681433
174.406221
185.544769
196.976437
204.011310
224.236569
229.512724
238.599434
254.134779
261.755891
267.325165
270.256362
280.515551
284.912347
296.930254
303.085768
308.068803
305.137606
307.189444
306.603205
304.844486
302.792648
308.068803
308.068803
309.534402
303.965127
304.844486
303.085768
295.171536
286.084826
286.084826
283.153629
269.670123
268.790763
252.962300
249.151744
236.840716
227.460886
215.442978
200.786993
184.079171
169.716305
158.870877
143.921772
127.507069
113.437323
93.505184
78.556079
63.900094
49.244109
35.174364
14.949105
2.931197
-11.802657
-25.670778
-39.538899
-54.292220
-68.455408
-79.667932
-92.355787
-105.338710
-115.370968
-129.534156
-141.631879
-158.155598
-165.237192
-180.580645
-192.383302
-208.316888
-218.349146
-228.676471
-237.528463
-249.921252
-257.888046
-266.149905
-273.231499
-281.198292
-286.804554
-293.591082
-296.246679
-303.328273
-302.443074
-304.213472
-305.098672
-305.688805
-305.688805
-307.164137
-304.803605
-305.983871
-302.443074
-300.967742
-296.246679
-291.525617
-290.050285
-282.378558
-275.296964
-268.805503
-259.658444
-249.036053
-241.954459
-232.217268
-219.824478
-207.136622
-193.563567
-178.515180
-164.647059
-150.483871
-136.320683
-119.501898
-102.388046
-84.979127
-70.520873
-54.292220
-39.243833
-21.244782
-7.081594
7.034873
22.277097
37.226202
49.830349
63.900094
76.211122
89.108388
100.246937
112.264844
124.282752
136.886899
148.025448
161.215834
172.940622
184.665410
199.321395
212.218662
222.184731
231.271442
242.409991
251.496701
261.169651
267.325165
276.704995
284.619227
291.067861
298.395853
301.033930
305.430726
306.016965
308.361923
308.948162
307.482564
308.655042
308.655042
307.189444
304.551367
303.965127
301.033930
299.861451
295.171536
290.481621
286.377945
279.636192
273.187559
263.807729
255.600377
245.048068
236.254477
224.236569
212.804901
199.321395
186.131008
170.595664
157.112158
141.283695
126.627710
109.626767
92.918944
78.262959
63.020735
48.657870
32.243167
16.707823
0.586239
-13.573055
-26.555977
-41.604364
-55.177419
-69.340607
-82.028463
-94.126186
-106.814042
-118.026565
-131.009488
-144.582543
-157.860531
-167.007590
-179.990512
-196.514231
-211.267552
-220.709677
-228.971537
-238.708729
-248.445920
-256.707780
-265.559772
-272.051233
-279.427894
-287.099620
-294.476281
-299.492410
-301.852941
-303.623340
-303.623340
-307.164137
-305.098672
-305.983871
-303.623340
-303.918406
-303.918406
-301.557875
-300.377609
-296.836812
-294.771347
-288.870019
-283.263757
-276.477230
-268.215370
-260.248577
-251.101518
-242.544592
-230.151803
-218.054080
-207.726755
-192.383302
-179.990512
-164.647059
-149.303605
-137.205882
-120.387097
-101.502846
-85.274194
-69.635674
-53.407021
-38.358634
-22.720114
-6.786528
7.034873
21.690858
36.346843
49.244109
62.727615
76.211122
87.642790
100.246937
113.730443
123.696513
137.180019
148.611687
163.267672
172.647502
184.958530
199.614515
213.391140
222.770971
231.564562
242.409991
251.496701
261.755891
268.204524
276.704995
284.032988
291.360980
298.688973
301.620170
306.310085
306.896324
308.948162
308.948162
310.413761
308.361923
308.361923
308.361923
305.430726
303.965127
302.499529
298.982092
296.930254
290.774741
285.498586
279.343073
272.308200
264.100848
253.841659
245.634307
235.668238
223.943450
212.511781
199.321395
185.251649
171.475024
156.525919
142.163054
128.093308
109.919887
93.798303
76.797361
62.434496
47.778511
31.070688
17.000943
0.293120
-12.982922
-27.736243
-41.604364
-55.472486
-68.455408
-81.438330
-93.831120
-105.633776
-116.256167
-130.714421
-144.582543
-157.270398
-167.302657
-179.990512
-195.333966
-209.497154
-220.709677
-228.676471
-239.298861
-247.855787
-256.707780
-265.264706
-273.231499
-279.427894
-287.984820
-293.591082
-299.787476
-302.148008
-303.918406
-305.393738
-305.098672
-305.393738
-303.918406
-305.098672
-304.508539
-302.148008
-299.787476
-297.722011
-297.426945
-293.296015
-287.394687
-280.018027
-276.477230
-268.805503
-260.248577
-250.806452
-242.544592
-231.332068
-220.119545
-206.841556
-195.038899
-179.105313
-164.351992
-150.188805
-136.615750
-120.387097
-101.797913
-85.864326
-71.111006
-54.292220
-39.833966
-23.310247
-8.851992
6.448633
21.690858
36.053723
50.709708
62.141376
75.038643
87.642790
100.540057
111.971725
123.110273
135.421301
148.318567
159.457116
171.475024
182.906692
199.028275
212.511781
222.184731
230.685203
241.823751
252.082941
260.876532
269.377003
276.998115
282.567389
291.067861
297.516494
302.499529
306.603205
306.603205
306.896324
308.655042
308.361923
308.948162
307.775683
308.068803
305.723845
304.258247
302.499529
299.861451
295.464656
290.188501
287.257304
280.808671
272.015080
263.221489
255.014138
246.220547
235.375118
224.529689
212.218662
199.321395
185.544769
170.595664
156.525919
142.749293
127.800189
110.506126
93.212064
77.969840
62.434496
46.899152
31.070688
16.414703
-0.590133
-13.868121
-28.916509
-41.014231
-56.357685
-67.570209
-80.848197
-94.421252
-105.338710
-119.206831
-131.009488
-143.697343
-157.565465
-166.712524
-180.875712
-196.219165
-209.202087
-220.709677
-228.086338
-239.003795
-247.855787
-259.068311
-264.674573
-272.051233
-279.722960
-286.804554
-293.591082
-297.722011
-300.967742
-303.033207
-304.803605
-306.278937
-305.098672
-305.688805
-306.278937
-304.508539
-303.328273
-302.738140
-298.902277
-296.541746
-292.410816
-287.689753
-282.083491
-274.116698
-266.740038
-259.953510
-251.396584
-241.659393
-230.741935
-218.349146
-206.841556
-193.563567
-178.220114
-164.942125
-149.303605
-135.730550
-120.092030
-101.797913
-85.274194
-69.340607
-53.407021
-38.948767
-22.425047
-6.491461
7.034873
22.277097
37.226202
49.244109
61.848256
75.038643
88.522149
100.833176
112.264844
123.989632
137.766258
150.370405
162.095193
171.475024
185.251649
200.786993
214.563619
225.115928
233.616400
242.116871
253.548539
261.462771
269.963242
278.170594
282.860509
292.533459
297.809614
303.085768
306.016965
307.775683
308.948162
310.413761
311.000000
309.534402
309.827521
308.361923
305.723845
305.430726
302.792648
300.447691
296.930254
291.360980
286.084826
278.756833
272.308200
263.807729
255.893497
245.927427
234.202639
223.064090
211.339303
197.562677
184.958530
169.130066
155.353440
141.283695
126.041470
107.281810
92.332705
75.624882
61.262017
45.433553
29.605090
13.776626
-0.885199
-14.753321
-30.686907
-43.079696
-57.537951
-70.815939
-84.388994
-95.601518
-107.109108
-119.796964
-132.189753
-145.762808
-159.335863
-169.073055
-182.941176
-198.284630
-210.677419
-221.299810
-229.266603
-239.298861
-251.691651
-259.658444
-266.444972
-273.526565
-279.722960
-287.984820
-292.410816
-299.492410
-301.852941
-305.098672
-306.278937
-306.278937
-305.393738
-305.983871
-306.869070
-304.803605
-301.262808
-299.787476
-299.197343
-294.771347
-291.820683
-287.394687
-282.378558
-275.592030
-269.100569
-259.363378
-249.331120
-241.364326
-231.037002
-218.054080
-206.841556
-193.563567
-178.810247
-164.351992
-148.123340
-135.730550
-118.616698
-99.732448
-83.503795
-69.045541
-53.111954
-38.948767
-22.129981
-7.376660
8.207352
21.397738
37.226202
49.537229
63.020735
76.211122
88.229029
101.419416
112.851084
124.575872
137.180019
149.784166
162.974552
172.647502
185.544769
201.080113
213.391140
224.529689
233.909519
243.875589
253.255419
262.635250
270.256362
277.291235
285.498586
291.067861
299.568332
304.258247
306.310085
307.482564
308.655042
309.827521
308.068803
309.827521
309.827521
308.361923
306.310085
304.844486
302.499529
299.275212
296.344015
290.188501
286.377945
279.929312
272.308200
262.928369
253.841659
245.341188
233.909519
223.064090
211.925542
198.148916
183.199811
170.888784
155.353440
140.697455
125.162111
107.574929
90.573987
76.211122
60.089538
46.312912
30.484449
13.483506
-1.475332
-16.523719
-29.506641
-42.489564
-56.062619
-69.045541
-82.913662
-95.601518
-107.404175
-120.092030
-131.894687
-144.877609
-158.450664
-167.892789
-181.170778
-197.399431
-210.677419
-220.709677
-229.856736
-240.184061
-250.216319
-257.888046
-264.379507
-271.461101
-279.722960
-287.984820
-293.296015
-299.197343
-300.967742
-303.623340
-305.098672
-304.803605
-305.393738
-304.213472
-303.033207
-303.918406
-302.148008
-299.492410
-297.722011
-294.771347
-289.460152
-285.624288
-280.608159
-274.411765
-267.035104
-259.068311
-249.331120
-240.774194
-229.561670
-219.234345
-206.841556
-193.268501
-178.810247
-164.056926
-150.483871
-137.205882
-119.796964
-101.797913
-84.684061
-69.930740
-54.882353
-40.424099
-23.605313
-8.556926
7.034873
21.104618
35.467484
50.123468
62.434496
74.452403
87.642790
101.126296
111.385485
124.575872
136.300660
148.904807
161.802074
171.475024
184.079171
200.200754
213.977380
224.236569
233.030160
243.582469
252.376060
262.049010
270.842601
276.704995
284.619227
291.360980
298.982092
302.792648
304.258247
306.310085
306.896324
308.655042
308.948162
308.948162
309.827521
307.775683
306.310085
305.430726
302.499529
299.861451
296.050895
291.360980
286.377945
278.463713
272.308200
262.342130
252.962300
244.461828
235.081998
223.650330
211.339303
198.442036
183.199811
169.130066
154.767201
141.869934
125.162111
107.868049
91.453346
76.211122
60.382658
45.726673
29.018850
12.604147
-0.295066
-15.048387
-30.096774
-43.964896
-56.947818
-70.225806
-83.208729
-95.601518
-107.404175
-119.501898
-132.189753
-145.172676
-158.155598
-168.187856
-182.941176
-196.219165
-210.382353
-221.299810
-229.856736
-240.774194
-250.511385
-257.002846
-265.854839
-272.641366
-280.313093
-288.574953
-293.886148
-297.722011
-300.082543
-302.738140
-303.033207
-305.098672
-304.803605
-305.098672
-304.803605
-303.623340
-303.033207
-301.557875
-298.607211
-296.246679
-290.935484
-286.804554
-280.903226
-275.001898
-266.740038
-256.412713
-249.626186
-240.479127
-229.856736
-217.463947
-206.546490
-192.973435
-177.629981
-163.761860
-148.713472
-134.845351
-118.616698
-100.027514
-84.093928
-69.930740
-53.997154
-39.243833
-23.015180
-6.491461
7.327992
21.983977
35.467484
50.709708
63.020735
75.038643
88.229029
100.833176
112.264844
124.868992
137.473139
150.077286
162.095193
172.354383
184.958530
201.373233
214.270500
225.115928
234.202639
243.289350
253.548539
262.049010
270.549482
277.291235
284.326107
293.412818
299.275212
303.965127
307.482564
308.068803
308.948162
310.413761
308.948162
309.827521
310.413761
307.775683
306.603205
305.137606
301.620170
299.861451
295.757776
289.895382
285.498586
280.222432
271.721960
262.049010
253.548539
244.754948
233.323280
223.064090
211.339303
196.976437
184.079171
167.371348
153.301602
139.524976
123.696513
106.402451
89.401508
73.573044
58.623940
43.967955
26.380773
12.311027
-1.770398
-16.818786
-31.572106
-45.440228
-58.423150
-71.701139
-85.274194
-96.781784
-109.764706
-121.567362
-133.960152
-147.238140
-159.040797
-170.253321
-181.465844
-198.579696
-210.972486
-221.889943
-231.037002
-240.479127
-249.331120
-259.363378
-267.330171
-272.641366
-281.788425
-287.394687
-294.181214
-299.197343
-302.148008
-304.508539
-305.098672
-306.574004
-306.574004
-305.098672
-303.328273
-304.508539
-302.738140
-300.672676
-298.607211
-296.246679
-292.705882
-285.919355
-279.722960
-275.296964
-267.625237
-257.002846
-249.921252
-239.298861
-229.266603
-218.644213
-206.251423
-192.383302
-177.629981
-161.991461
-148.713472
-134.550285
-118.321632
-100.322581
-83.798861
-68.750474
-52.226755
-38.358634
-21.834915
-5.606262
8.793591
22.277097
35.760603
50.709708
63.606975
77.383600
89.694628
101.712535
113.437323
125.748351
138.059378
150.077286
164.440151
173.526861
186.717248
202.545712
215.149859
225.409048
233.323280
244.168709
253.841659
263.807729
270.256362
277.877474
285.205467
293.705938
298.982092
302.206409
306.016965
306.310085
307.482564
308.361923
309.241282
311.000000
308.361923
308.068803
306.896324
304.551367
303.378888
300.447691
296.050895
291.360980
284.326107
279.049953
271.721960
262.635250
252.962300
242.996230
233.909519
222.477851
209.580584
196.683318
182.320452
166.785108
152.715363
138.938737
123.110273
104.936852
89.401508
73.866164
58.330820
44.847314
26.967012
10.552309
-2.950664
-16.523719
-33.047438
-45.735294
-58.128083
-71.996205
-84.093928
-97.962049
-107.994307
-121.567362
-134.550285
-147.238140
-159.630930
-170.253321
-182.646110
-199.464896
-212.742884
-222.480076
-231.037002
-241.364326
-249.921252
-258.773245
-268.215370
-272.641366
-280.018027
-288.574953
-295.066414
-298.607211
-303.033207
-304.213472
-305.098672
-304.803605
-305.688805
-303.328273
-303.623340
-302.148008
-301.852941
-301.262808
-297.722011
-295.656546
-290.050285
-285.624288
-280.018027
-272.936433
-266.149905
-257.297913
-249.626186
-240.184061
-229.561670
-217.168880
-205.956357
-192.678368
-177.039848
-164.056926
-147.828273
-135.140417
-118.911765
-100.617647
-84.093928
-69.045541
-52.816888
-38.653700
-22.129981
-6.196395
7.621112
23.156456
36.639962
49.830349
63.606975
76.504241
89.694628
99.953817
112.557964
124.868992
137.180019
150.370405
162.681433
172.061263
186.717248
201.959472
215.442978
225.115928
233.030160
244.461828
254.134779
263.221489
270.842601
278.756833
284.619227
293.412818
298.982092
303.085768
304.551367
306.016965
308.361923
308.361923
310.706880
309.241282
309.534402
308.948162
306.310085
304.258247
301.913289
300.154571
295.757776
290.481621
284.912347
279.049953
270.549482
262.635250
255.014138
244.461828
233.030160
222.477851
209.287465
195.803959
183.199811
167.957587
153.008483
138.938737
122.524034
106.109331
89.108388
73.866164
58.917059
44.261074
27.846371
12.604147
-2.655598
-17.113852
-31.572106
-43.964896
-57.242884
-71.406072
-83.208729
-97.076850
-108.879507
-121.862429
-134.550285
-146.648008
-160.516129
-170.253321
-182.941176
-200.350095
-212.742884
-223.955408
-232.217268
-241.954459
-251.396584
-259.658444
-266.444972
-273.231499
-280.608159
-289.460152
-293.591082
-299.492410
-300.672676
-303.918406
-304.508539
-303.623340
-305.098672
-304.803605
-305.688805
-303.918406
-302.443074
-301.262808
-298.312144
-295.951613
-291.525617
-286.214421
-281.198292
-272.641366
-266.149905
-257.297913
-247.560721
-238.413662
-229.266603
-216.578748
-204.185958
-191.203036
-177.334915
-161.401328
-147.533207
-132.189753
-117.141366
-99.437381
-83.798861
-66.980076
-52.226755
-37.768501
-20.949715
-6.491461
8.500471
23.742696
38.691800
51.882187
64.779453
77.383600
89.694628
103.764373
114.609802
126.627710
139.231857
150.663525
163.560792
173.526861
186.131008
202.545712
215.736098
227.167766
234.788878
244.754948
255.014138
264.980207
272.308200
277.584354
287.843544
292.533459
298.982092
304.551367
306.896324
308.361923
310.120641
310.706880
309.241282
308.948162
308.361923
306.896324
306.896324
304.551367
302.792648
300.154571
295.171536
291.067861
285.791706
278.463713
270.842601
260.583412
252.669180
244.168709
234.202639
221.891612
208.994345
195.803959
180.268615
166.785108
151.249764
139.818096
121.058435
103.471254
87.642790
72.400566
56.865221
41.916117
25.794533
9.672950
-4.721063
-18.294118
-32.752372
-46.030361
-59.308349
-73.471537
-86.159393
-98.257116
-110.649905
-123.337761
-136.025617
-148.123340
-160.221063
-171.433586
-184.416509
-199.759962
-213.923150
-224.250474
-231.332068
-241.069260
-250.806452
-259.953510
-267.035104
-274.411765
-280.903226
-288.870019
-295.066414
-298.902277
-301.852941
-304.803605
-304.803605
-305.098672
-305.393738
-304.803605
-303.918406
-304.213472
-301.262808
-300.377609
-298.017078
-295.066414
-290.640417
-286.509488
-279.722960
-272.051233
-266.740038
-255.527514
-247.560721
-238.118596
-228.381404
-217.168880
-204.776091
-190.612903
-176.154649
-162.876660
-146.943074
-133.370019
-116.551233
-98.552182
-82.323529
-68.160342
-51.046490
-36.883302
-20.064516
-4.721063
9.086711
22.863336
38.398680
51.882187
65.365693
77.090481
90.280867
102.005655
114.609802
127.507069
140.111216
152.422243
165.319510
174.113101
187.303487
203.425071
216.615457
225.995287
235.081998
244.754948
255.014138
263.807729
272.894439
279.636192
286.377945
294.292177
300.154571
304.844486
306.896324
309.534402
310.120641
310.413761
310.413761
309.827521
309.534402
308.361923
306.016965
305.430726
302.792648
300.154571
296.344015
290.774741
285.205467
277.291235
270.842601
260.876532
253.548539
242.996230
231.857681
220.719133
209.287465
195.510839
179.975495
166.491989
152.422243
138.059378
120.765316
103.471254
87.056550
72.693685
55.692743
41.329877
24.915174
9.379830
-4.721063
-19.769450
-33.637571
-47.505693
-61.668880
-74.651803
-87.044592
-98.552182
-111.535104
-123.632827
-135.435484
-149.008539
-161.401328
-170.843454
-186.186907
-201.235294
-213.628083
-223.955408
-231.922201
-242.249526
-250.511385
-260.543643
-267.625237
-274.411765
-280.903226
-289.755218
-294.771347
-299.787476
-303.033207
-304.508539
-305.098672
-305.393738
-305.983871
-304.803605
-303.918406
-303.033207
-302.148008
-299.197343
-298.902277
-295.656546
-290.050285
-286.214421
-279.722960
-271.756167
-264.674573
-255.527514
-248.740987
-238.708729
-227.201139
-216.578748
-205.071157
-190.907970
-176.154649
-161.696395
-146.057875
-133.370019
-116.256167
-99.437381
-82.323529
-67.275142
-51.931689
-36.293169
-20.949715
-6.196395
9.379830
23.156456
36.933082
51.002828
63.900094
77.383600
89.987747
102.005655
114.609802
126.920829
139.231857
151.542884
164.147031
173.233742
188.475966
203.131951
216.029218
226.581527
234.202639
245.634307
255.600377
264.100848
272.308200
279.343073
286.671065
294.585297
300.154571
304.258247
307.482564
308.948162
309.241282
310.120641
310.120641
310.706880
308.361923
307.775683
307.189444
303.672008
300.740811
299.275212
295.464656
290.188501
284.032988
278.170594
269.670123
261.169651
252.376060
242.409991
230.392083
220.132893
209.287465
194.338360
181.441093
166.198869
150.956645
138.645617
119.592837
103.764373
85.884072
71.521206
56.572102
41.036758
25.501414
8.500471
-6.491461
-20.359583
-34.227704
-47.210626
-61.373814
-74.356736
-87.339658
-100.617647
-112.125237
-123.632827
-137.205882
-150.778937
-161.991461
-172.318786
-185.891841
-200.645161
-213.333017
-223.660342
-233.102467
-242.249526
-252.281784
-259.953510
-266.149905
-275.592030
-281.788425
-290.345351
-294.771347
-299.787476
-300.082543
-303.328273
-304.803605
-304.803605
-305.983871
-305.098672
-305.688805
-304.508539
-301.557875
-299.197343
-298.017078
-294.181214
-289.165085
-284.739089
-280.018027
-272.641366
-265.264706
-256.412713
-246.970588
-237.823529
-226.315939
-216.873814
-203.890892
-190.612903
-176.154649
-160.811195
-147.533207
-132.779886
-117.141366
-97.962049
-82.618596
-66.685009
-53.111954
-37.473435
-20.064516
-5.606262
9.672950
23.449576
38.105561
51.882187
63.606975
77.383600
89.987747
102.005655
114.609802
125.162111
138.059378
151.542884
163.560792
173.819981
188.475966
202.838831
215.149859
225.115928
234.788878
245.634307
255.893497
264.980207
271.721960
278.756833
286.671065
294.292177
299.861451
303.672008
306.016965
307.189444
307.775683
309.534402
308.655042
308.655042
308.655042
307.482564
306.603205
304.844486
302.792648
299.275212
294.292177
290.774741
283.446748
279.343073
269.670123
261.462771
250.617342
242.703110
232.150801
221.012253
206.649387
194.338360
179.682375
165.905749
150.956645
136.593779
119.592837
102.298775
86.763431
70.348728
57.158341
41.036758
22.863336
7.914232
-5.901328
-20.654649
-35.703036
-48.390892
-61.373814
-75.537002
-86.454459
-100.322581
-112.125237
-123.927894
-137.205882
-150.778937
-161.401328
-172.908918
-185.891841
-201.235294
-213.923150
-224.250474
-232.217268
-241.954459
-251.396584
-261.133776
-268.805503
-274.116698
-282.968691
-288.574953
-295.951613
-300.082543
-303.623340
-304.508539
-305.393738
-305.393738
-304.213472
-304.508539
-304.803605
-303.328273
-302.443074
-300.377609
-298.312144
-295.656546
-290.345351
-285.034156
-279.427894
-273.526565
-265.264706
-256.707780
-247.855787
-238.708729
-227.791271
-215.398482
-204.185958
-190.612903
-176.449715
-161.991461
-146.648008
-133.370019
-115.370968
-98.552182
-82.028463
-67.275142
-51.931689
-37.178368
-20.359583
-5.606262
9.379830
24.915174
37.226202
50.123468
65.365693
76.797361
90.867107
101.712535
114.316682
126.920829
138.645617
152.422243
163.853911
174.699340
188.475966
203.425071
216.908577
226.581527
235.081998
245.634307
255.893497
266.152686
272.308200
279.929312
285.791706
295.464656
299.568332
304.258247
306.016965
306.896324
309.241282
309.827521
309.827521
309.534402
309.241282
307.189444
306.603205
303.085768
300.154571
298.102733
293.705938
288.722903
283.739868
277.291235
269.377003
259.997172
252.082941
243.289350
229.805844
220.426013
207.821866
193.165881
179.096136
162.974552
149.491046
136.300660
118.420358
100.540057
85.297832
70.055608
56.572102
38.691800
23.742696
8.793591
-6.786528
-21.244782
-36.293169
-48.685958
-61.373814
-75.832068
-88.519924
-101.502846
-113.600569
-125.698292
-138.976281
-151.074004
-162.581594
-172.908918
-187.072106
-201.825427
-213.923150
-224.545541
-232.807400
-242.839658
-251.986717
-260.543643
-268.510436
-274.411765
-282.378558
-289.460152
-293.591082
-299.492410
-300.967742
-303.033207
-304.213472
-304.508539
-305.688805
-305.393738
-303.918406
-304.213472
-301.557875
-299.492410
-297.426945
-295.066414
-290.050285
-285.919355
-278.837761
-272.936433
-264.084440
-256.117647
-246.675522
-237.823529
-226.611006
-215.398482
-203.005693
-190.022770
-175.859583
-159.630930
-146.943074
-132.779886
-115.075901
-98.847249
-82.323529
-66.389943
-51.046490
-36.293169
-19.474383
-5.016129
9.672950
24.035815
38.691800
51.295947
65.658812
77.969840
91.160226
102.298775
114.902922
127.213949
140.111216
151.542884
164.440151
173.526861
188.182846
204.890669
216.322337
227.167766
235.961357
245.634307
255.893497
265.566447
272.308200
278.170594
286.964185
293.999057
299.275212
303.378888
305.430726
306.896324
307.775683
309.534402
308.655042
308.068803
308.068803
308.068803
306.310085
304.258247
303.085768
299.275212
294.292177
291.067861
283.153629
277.291235
269.083883
259.704053
252.082941
240.944392
230.978322
221.012253
207.235627
192.872762
179.389255
163.267672
149.491046
135.421301
118.420358
100.540057
84.125353
69.469369
53.934025
38.691800
22.570217
7.914232
-7.081594
-21.834915
-35.703036
-50.161290
-63.734345
-76.422201
-88.224858
-100.617647
-112.420304
-126.878558
-138.386148
-151.369070
-161.991461
-173.203985
-187.367173
-202.120493
-214.513283
-226.020873
-232.512334
-243.134725
-252.281784
-261.133776
-269.395636
-274.116698
-283.558824
-289.460152
-294.771347
-300.377609
-302.443074
-304.508539
-306.574004
-305.688805
-305.098672
-305.098672
-303.623340
-303.623340
-302.443074
-300.377609
-297.426945
-294.181214
-292.115750
-285.034156
-279.427894
-273.231499
-265.854839
-256.117647
-246.675522
-237.528463
-227.201139
-215.398482
-203.300759
-190.317837
-173.499051
-159.335863
-145.467742
-131.599620
-114.485769
-97.371917
-80.848197
-65.799810
-50.161290
-34.227704
-18.589184
-4.130930
10.845429
25.501414
39.278040
52.175306
66.831291
78.849199
92.918944
104.350613
117.247879
128.972667
141.283695
154.767201
165.319510
176.751178
191.700283
206.356268
218.081056
227.460886
235.961357
247.099906
257.359095
264.980207
272.601320
279.636192
286.964185
295.171536
301.033930
303.965127
306.310085
308.068803
308.361923
310.413761
309.827521
307.775683
308.361923
307.189444
304.844486
302.499529
301.913289
298.688973
294.585297
289.016023
282.274270
275.532516
268.790763
259.410933
251.496701
241.530631
230.978322
219.839774
206.942507
193.165881
179.096136
163.853911
149.197926
136.007540
118.127238
102.885014
84.418473
70.348728
56.572102
40.450518
23.449576
7.327992
-7.081594
-20.654649
-34.522770
-47.800759
-62.849146
-74.946869
-87.634725
-100.027514
-113.305503
-124.813093
-137.500949
-151.074004
-161.401328
-172.908918
-186.777040
-202.415560
-214.218216
-224.545541
-233.397533
-243.134725
-251.691651
-260.838710
-267.920304
-274.116698
-281.493359
-289.755218
-295.066414
-298.902277
-300.967742
-301.557875
-303.328273
-305.098672
-305.688805
-304.213472
-304.508539
-303.328273
-300.672676
-299.492410
-297.131879
-294.476281
-290.640417
-285.034156
-279.722960
-270.280835
-264.084440
-255.232448
-246.970588
-236.643264
-226.611006
-215.103416
-202.415560
-188.547438
-174.679317
-158.745731
-144.877609
-130.124288
-113.600569
-95.011385
-79.962998
-64.619545
-49.276091
-34.227704
-16.228653
-2.950664
12.604147
25.208294
39.864279
53.934025
66.538172
79.728558
91.453346
103.764373
116.368520
128.386428
141.869934
154.474081
165.905749
175.578699
189.648445
205.183789
218.667295
228.633365
236.840716
246.513666
257.359095
265.566447
273.773798
279.929312
288.136664
294.878417
300.447691
304.844486
306.896324
308.361923
310.120641
308.655042
309.534402
309.534402
309.534402
310.120641
306.603205
303.965127
301.913289
298.688973
293.999057
289.309142
284.032988
277.584354
269.670123
259.997172
251.203582
241.237512
230.098963
220.132893
206.356268
192.579642
178.803016
162.681433
150.077286
134.541942
117.834119
99.953817
82.952875
67.710650
54.227144
36.933082
22.277097
6.741753
-6.491461
-21.834915
-36.293169
-48.981025
-63.734345
-76.422201
-88.814991
-102.092979
-113.305503
-125.403226
-139.271347
-151.959203
-162.286528
-174.974383
-186.481973
-203.595825
-215.103416
-225.430740
-233.692600
-241.954459
-251.986717
-260.248577
-269.690702
-275.296964
-282.968691
-289.755218
-295.361480
-299.787476
-301.262808
-303.918406
-303.918406
-304.213472
-304.803605
-304.213472
-303.328273
-304.213472
-302.148008
-299.492410
-298.017078
-293.591082
-289.460152
-283.558824
-278.542694
-272.346300
-264.379507
-254.052182
-245.495256
-236.938330
-225.725806
-214.808349
-201.235294
-188.252372
-172.613852
-157.270398
-144.287476
-129.829222
-113.305503
-95.011385
-78.487666
-64.324478
-48.981025
-32.752372
-17.408918
-1.180266
11.431668
27.260132
40.743638
55.106503
67.417531
80.901037
92.918944
104.936852
117.247879
128.972667
142.163054
154.180961
165.612630
176.751178
190.820924
207.235627
218.960415
228.340245
238.013195
247.099906
258.238454
265.566447
272.894439
279.929312
286.671065
295.464656
301.913289
305.137606
306.603205
308.068803
310.120641
310.120641
308.948162
308.948162
308.948162
305.723845
306.603205
305.430726
303.085768
298.395853
294.292177
288.722903
284.619227
276.704995
267.911404
259.410933
251.203582
241.237512
232.150801
218.960415
206.063148
191.700283
177.044298
163.560792
148.904807
135.128181
117.540999
101.419416
84.711593
68.883129
55.106503
38.691800
22.863336
7.914232
-7.376660
-21.834915
-35.112903
-49.276091
-61.963947
-76.422201
-88.519924
-100.027514
-112.420304
-124.813093
-138.681214
-150.188805
-162.286528
-172.908918
-188.547438
-202.120493
-214.513283
-224.840607
-232.807400
-243.724858
-254.052182
-261.428843
-267.330171
-274.411765
-281.788425
-290.345351
-295.656546
-301.262808
-303.623340
-303.918406
-304.803605
-303.623340
-304.508539
-305.393738
-303.328273
-303.033207
-300.672676
-298.607211
-296.836812
-291.820683
-287.984820
-283.263757
-277.657495
-269.985769
-262.904175
-254.052182
-245.790323
-235.758065
-225.725806
-213.923150
-199.759962
-186.186907
-173.499051
-158.450664
-143.992410
-130.419355
-112.125237
-95.306452
-79.372865
-63.439279
-50.751423
-33.342505
-17.113852
-2.360531
12.311027
26.673893
40.743638
52.468426
65.951932
80.021678
92.332705
104.643732
116.661640
128.679548
141.869934
154.767201
165.026390
177.630537
190.820924
206.649387
219.546654
228.340245
237.426956
248.272385
257.065975
267.325165
273.187559
280.515551
288.136664
296.050895
300.740811
303.965127
306.310085
307.482564
308.948162
308.655042
310.413761
309.827521
308.655042
308.361923
305.723845
303.965127
301.327050
298.102733
293.705938
288.136664
282.567389
276.704995
268.790763
259.704053
250.617342
240.944392
229.219604
219.546654
205.476909
191.407163
177.337418
161.508954
148.318567
133.662582
118.127238
99.074458
83.245994
67.710650
53.347785
36.639962
21.104618
5.862394
-9.442125
-23.310247
-37.473435
-51.341556
-64.324478
-76.717268
-89.405123
-102.092979
-114.780835
-125.698292
-139.861480
-152.844402
-162.581594
-175.269450
-189.137571
-205.071157
-216.283681
-225.725806
-235.167932
-245.200190
-253.462049
-261.723909
-269.690702
-275.296964
-283.263757
-291.230550
-295.361480
-300.377609
-300.672676
-302.148008
-303.623340
-303.328273
-304.508539
-304.213472
-303.623340
-304.213472
-301.262808
-300.967742
-298.607211
-293.886148
-289.460152
-282.378558
-278.837761
-270.870968
-263.494307
-252.281784
-244.905123
-235.758065
-225.135674
-212.447818
-200.645161
-187.957306
-171.138520
-158.155598
-143.697343
-130.124288
-112.420304
-95.011385
-78.487666
-64.324478
-48.390892
-32.752372
-17.703985
-1.770398
12.311027
25.794533
41.329877
54.813384
67.710650
81.194156
92.625825
104.643732
116.954760
128.972667
143.042413
155.353440
165.612630
177.337418
191.993402
207.235627
219.253534
228.047125
237.720075
247.979265
259.117813
266.738926
273.773798
281.394910
286.377945
296.637135
301.913289
305.430726
307.189444
307.482564
309.534402
311.000000
310.120641
307.775683
309.827521
307.189444
304.844486
303.378888
301.620170
298.395853
293.999057
289.309142
281.981150
275.239397
267.325165
259.117813
251.203582
240.651272
228.926484
219.253534
205.183789
190.820924
176.751178
161.802074
147.146089
133.955702
114.902922
98.781338
82.659755
67.417531
53.054665
36.346843
19.639020
4.983035
-9.147059
-23.900380
-38.063567
-51.341556
-64.029412
-77.602467
-90.880455
-101.207780
-115.666034
-126.288425
-139.861480
-152.549336
-164.647059
-174.384250
-190.022770
-205.071157
-215.988615
-225.135674
-235.462998
-244.610057
-254.937381
-262.018975
-270.575901
-275.001898
-284.444023
-290.935484
-296.246679
-299.787476
-300.967742
-303.623340
-305.688805
-305.688805
-305.688805
-305.688805
-304.508539
-302.738140
-299.492410
-298.902277
-297.131879
-293.000949
-288.574953
-283.263757
-277.362429
-270.575901
-262.609108
-254.937381
-245.495256
-235.167932
-225.135674
-212.742884
-199.759962
-185.891841
-172.318786
-156.680266
-143.697343
-126.878558
-111.535104
-94.126186
-78.487666
-63.439279
-47.505693
-33.047438
-15.638520
-1.475332
12.604147
28.139491
41.329877
55.692743
68.003770
80.607917
92.918944
104.350613
115.489161
127.800189
142.456173
154.767201
165.612630
177.923657
192.579642
206.942507
219.546654
228.047125
236.547597
247.979265
257.652215
266.445806
275.239397
280.515551
288.722903
294.878417
300.447691
304.844486
307.482564
307.482564
308.361923
308.948162
308.068803
308.068803
310.120641
308.361923
305.430726
304.258247
301.620170
299.275212
294.292177
288.722903
283.739868
275.825636
267.325165
258.238454
250.617342
239.771913
228.047125
217.787936
204.011310
190.820924
176.164939
161.802074
148.025448
133.662582
114.902922
98.195099
82.659755
67.417531
50.416588
36.053723
21.397738
4.103676
-8.556926
-23.310247
-37.768501
-51.636622
-64.324478
-77.897533
-89.405123
-102.092979
-113.895636
-127.468691
-139.566414
-152.254269
-163.171727
-175.859583
-190.317837
-204.185958
-215.988615
-225.135674
-233.987666
-244.905123
-252.871917
-262.018975
-268.510436
-277.067362
-284.148956
-290.050285
-297.426945
-302.443074
-303.328273
-303.623340
-305.393738
-303.328273
-304.213472
-303.623340
-304.213472
-302.738140
-301.262808
-300.082543
-297.722011
-293.591082
-288.574953
-284.739089
-277.067362
-269.690702
-263.199241
-253.757116
-245.790323
-236.643264
-223.955408
-212.447818
-199.759962
-186.777040
-171.138520
-157.270398
-143.697343
-128.353890
-110.944972
-93.536053
-76.422201
-62.849146
-48.390892
-32.752372
-15.343454
-1.180266
14.069746
28.432611
42.209237
54.813384
67.710650
80.314797
92.918944
105.523091
117.834119
130.731385
144.214892
155.646560
165.905749
177.337418
193.459001
206.942507
219.546654
227.460886
238.013195
248.858624
258.238454
265.566447
274.653157
281.981150
289.016023
296.637135
301.620170
306.016965
307.482564
309.241282
309.534402
308.948162
311.000000
308.655042
308.068803
307.482564
305.430726
302.206409
301.327050
298.395853
293.705938
288.722903
281.981150
276.118756
267.911404
257.652215
251.789821
240.651272
228.340245
217.201697
204.890669
190.820924
176.751178
160.629595
147.439208
133.662582
114.609802
99.074458
82.659755
66.245052
52.761546
35.467484
21.104618
4.689915
-9.147059
-23.015180
-38.063567
-49.866224
-63.734345
-77.897533
-89.995256
-101.502846
-114.485769
-127.173624
-139.271347
-153.434535
-163.171727
-173.794118
-190.317837
-204.481025
-215.988615
-226.315939
-235.758065
-243.429791
-254.642315
-262.609108
-267.920304
-277.067362
-282.673624
-291.820683
