247.399625
240.397749
259.652908
266.363039
284.742964
274.240150
295.829268
300.497186
302.247655
302.247655
303.122889
303.998124
306.915572
307.790807
306.623827
305.456848
303.414634
301.372420
297.287992
291.744841
282.700750
278.032833
270.155722
260.819887
254.109756
241.272983
230.186679
219.975610
208.014071
191.384615
175.630394
159.584428
141.204503
123.991557
106.778612
89.857411
72.644465
53.389306
35.884615
16.629456
3.792683
-7.966793
-25.080645
-38.948767
-54.292220
-66.094877
-74.946869
-91.175522
-97.076850
-109.469639
-120.977230
-128.353890
-141.926945
-148.123340
-161.991461
-173.499051
-180.580645
-191.793169
-200.940228
-217.463947
-226.315939
-239.298861
-249.331120
-254.937381
-265.264706
-267.920304
-273.231499
-278.542694
-287.394687
-297.722011
-300.082543
-302.148008
-303.328273
-309.819734
-309.819734
-309.524668
-311.000000
-309.229602
-309.819734
-306.278937
-306.278937
-307.459203
-301.557875
-298.312144
-293.591082
-287.984820
-285.919355
-273.526565
-268.215370
-259.068311
-250.511385
-239.593928
-231.037002
-218.939279
-207.726755
-192.383302
-178.220114
-165.532258
-151.074004
-137.796015
-121.272296
-105.633776
-87.339658
-72.586338
-58.718216
-43.374763
-26.260911
-11.212524
4.084428
18.379925
33.550657
44.345216
60.099437
72.936210
86.356473
96.567542
109.987805
122.241088
135.953096
149.081614
160.751407
172.129456
187.591932
202.470919
215.015947
225.227017
235.729831
244.773921
255.860225
263.737336
268.113508
276.865854
285.909944
292.328330
298.163227
303.706379
305.165103
304.873358
306.915572
305.748593
307.790807
307.207317
306.623827
304.581614
302.831144
301.080675
299.621951
296.412758
290.577861
284.451220
278.032833
270.155722
260.528143
250.317073
240.106004
228.727955
218.225141
204.221388
189.634146
176.505629
160.167917
146.164165
131.285178
114.947467
97.442777
78.479362
61.558161
45.803940
29.757974
13.420263
-1.770398
-16.523719
-31.277040
-44.259962
-58.128083
-69.635674
-82.323529
-94.421252
-105.633776
-117.436433
-129.534156
-139.566414
-150.188805
-164.056926
-174.384250
-182.941176
-197.399431
-212.742884
-223.365275
-233.692600
-240.774194
-250.216319
-258.773245
-264.674573
-272.346300
-277.657495
-286.804554
-293.886148
-298.902277
-303.918406
-305.983871
-307.754269
-309.229602
-308.639469
-308.344402
-308.639469
-306.869070
-308.049336
-305.688805
-303.328273
-300.377609
-297.426945
-293.591082
-288.279886
-283.263757
-276.182163
-267.920304
-257.592979
-249.331120
-240.184061
-230.741935
-217.759013
-205.071157
-190.907970
-177.334915
-164.056926
-150.188805
-136.615750
-119.501898
-103.568311
-86.159393
-71.111006
-56.357685
-40.719165
-25.080645
-9.147059
4.376173
18.671670
34.134146
46.970919
61.266417
74.394934
87.231707
99.776735
110.863039
122.824578
136.828330
149.956848
161.918386
173.004690
187.591932
203.054409
215.891182
225.227017
235.146341
245.357411
254.401501
262.862101
269.863977
277.741088
284.451220
292.620075
297.579737
302.539400
304.873358
303.998124
307.499062
306.623827
308.957786
307.207317
306.623827
307.207317
303.998124
302.247655
299.913696
296.704503
290.577861
287.076923
280.366792
273.073171
264.029081
256.151970
245.357411
235.146341
222.601313
209.764540
196.052533
182.340525
166.002814
152.290807
137.995310
122.241088
104.152908
85.189493
69.727017
53.097561
37.635084
22.756098
5.834897
-9.147059
-22.720114
-37.178368
-49.571157
-63.144213
-77.012334
-88.814991
-102.092979
-112.125237
-123.927894
-136.025617
-147.828273
-160.516129
-171.433586
-181.170778
-194.153700
-209.497154
-221.889943
-229.856736
-239.003795
-247.855787
-256.707780
-264.379507
-269.690702
-277.067362
-285.034156
-292.115750
-298.312144
-301.852941
-305.098672
-307.459203
-307.164137
-307.459203
-308.639469
-308.934535
-307.754269
-306.574004
-303.918406
-303.033207
-300.377609
-298.017078
-292.705882
-286.804554
-281.198292
-275.296964
-266.740038
-257.002846
-250.216319
-239.298861
-228.676471
-215.398482
-204.185958
-190.907970
-176.154649
-161.401328
-149.303605
-135.730550
-118.911765
-100.027514
-86.159393
-70.520873
-55.177419
-39.243833
-22.425047
-7.081594
7.001876
21.005629
35.301126
48.721388
62.725141
76.728893
89.565666
102.110694
113.488743
125.742026
139.745779
151.707317
163.377111
175.338649
189.634146
205.971857
218.225141
228.144465
236.896811
245.940901
256.151970
262.862101
271.322702
278.616323
287.368668
293.203565
300.205441
303.706379
305.456848
307.207317
307.790807
307.499062
307.207317
307.207317
306.623827
307.207317
303.998124
302.831144
299.038462
297.871482
292.328330
286.785178
280.658537
273.364916
265.196060
255.568480
246.232645
235.146341
223.768293
212.098499
197.803002
183.799250
169.503752
154.333021
139.454034
126.325516
107.945591
88.982176
72.936210
56.015009
42.303002
26.548780
9.919325
-5.311195
-20.064516
-33.932638
-46.620493
-61.373814
-73.766603
-86.749526
-100.912713
-113.305503
-122.452562
-135.140417
-146.057875
-159.925996
-171.728653
-180.285579
-196.219165
-209.202087
-221.004744
-230.446869
-239.298861
-246.970588
-257.002846
-264.379507
-269.690702
-277.067362
-285.919355
-293.591082
-298.312144
-303.328273
-305.393738
-307.164137
-306.574004
-309.524668
-308.049336
-308.639469
-307.459203
-305.393738
-305.688805
-303.033207
-300.672676
-296.541746
-291.230550
-285.329222
-280.313093
-274.411765
-264.969639
-256.707780
-248.445920
-239.003795
-227.496205
-214.808349
-204.185958
-190.612903
-176.449715
-161.991461
-149.303605
-133.665085
-117.731499
-101.207780
-82.618596
-67.570209
-53.702087
-37.768501
-21.539848
-7.081594
8.168856
21.880863
35.884615
49.304878
63.016886
77.604128
90.732645
102.110694
113.196998
127.200750
139.454034
152.290807
164.835835
175.338649
190.217636
206.263602
218.516886
227.560976
237.188555
246.816135
255.568480
264.320826
272.197936
278.324578
287.368668
294.662289
299.621951
303.122889
305.456848
307.207317
308.666041
308.374296
308.374296
307.790807
307.790807
306.332083
304.289869
302.247655
299.621951
297.287992
293.203565
288.535647
282.409006
275.407129
267.530019
257.610694
248.566604
238.647280
225.810507
212.390244
200.720450
184.966229
170.962477
155.791745
142.663227
129.242964
110.571295
92.483114
75.853659
59.515947
44.928705
28.590994
13.128518
-1.475332
-17.408918
-30.391841
-44.555028
-57.537951
-70.225806
-84.684061
-96.486717
-107.994307
-120.387097
-131.894687
-143.697343
-157.565465
-168.777989
-178.810247
-192.678368
-207.726755
-218.349146
-228.381404
-238.118596
-246.085389
-254.937381
-261.723909
-270.575901
-276.182163
-285.034156
-293.000949
-296.836812
-303.328273
-305.393738
-306.278937
-306.869070
-307.754269
-308.049336
-306.278937
-305.983871
-305.688805
-303.623340
-303.033207
-300.672676
-296.541746
-290.345351
-286.214421
-280.018027
-274.116698
-265.854839
-256.707780
-248.150854
-237.233397
-226.906072
-215.398482
-203.005693
-188.547438
-175.269450
-159.335863
-147.828273
-132.484820
-115.666034
-98.847249
-82.618596
-68.750474
-52.816888
-37.178368
-19.474383
-5.311195
9.044090
24.798311
37.635084
51.930582
65.059099
77.020638
91.316135
102.402439
114.655722
126.617261
140.329268
151.999062
164.252345
175.046904
190.801126
206.847092
217.349906
227.269231
238.063790
245.649156
256.151970
262.570356
271.322702
278.616323
287.076923
294.370544
299.330206
303.998124
306.332083
307.207317
307.790807
308.374296
307.790807
308.374296
306.915572
307.207317
305.456848
302.539400
300.788931
297.287992
293.787054
286.493433
282.700750
275.115385
266.654784
258.194184
248.566604
237.480300
225.810507
215.015947
201.303940
185.841463
171.837711
155.500000
142.954972
128.951220
109.404315
92.774859
75.270169
60.974672
46.970919
29.466229
13.420263
-2.950664
-16.818786
-29.801708
-43.669829
-57.242884
-70.520873
-83.798861
-96.191651
-108.879507
-120.092030
-132.189753
-143.697343
-157.270398
-169.368121
-178.515180
-193.563567
-208.907021
-219.824478
-227.201139
-237.233397
-246.380455
-255.527514
-262.018975
-270.280835
-277.362429
-286.214421
-291.525617
-298.607211
-302.148008
-304.213472
-305.688805
-306.869070
-308.049336
-308.049336
-306.869070
-305.983871
-305.688805
-304.508539
-302.148008
-299.492410
-296.246679
-290.935484
-285.329222
-281.493359
-272.641366
-265.264706
-255.822581
-247.560721
-237.823529
-225.725806
-214.808349
-201.825427
-188.842505
-175.269450
-159.925996
-147.828273
-132.484820
-115.961101
-99.437381
-82.618596
-67.570209
-51.636622
-35.998102
-20.359583
-3.245731
10.211069
25.090056
37.926829
52.805816
65.642589
78.771107
91.316135
103.277674
114.947467
127.784240
140.621013
152.874296
165.711069
176.797373
191.384615
207.722326
218.516886
227.852720
237.480300
247.691370
255.860225
264.904315
271.614447
279.199812
284.742964
294.370544
299.621951
305.165103
305.456848
307.499062
308.666041
309.249531
308.957786
308.666041
307.499062
307.207317
305.165103
303.122889
300.788931
296.996248
293.203565
287.660413
281.825516
274.531895
267.238274
257.027205
248.858349
238.939024
226.685741
215.015947
200.428705
188.467167
173.004690
157.542214
144.121951
131.285178
112.030019
94.817073
77.895872
62.433396
47.554409
31.800188
14.878987
-0.000000
-15.343454
-29.211575
-42.784630
-56.652751
-70.225806
-82.618596
-94.421252
-107.404175
-118.911765
-129.829222
-141.631879
-155.795066
-168.187856
-177.925047
-192.383302
-206.251423
-219.529412
-228.676471
-236.938330
-245.495256
-255.822581
-261.723909
-270.280835
-276.772296
-285.034156
-292.410816
-298.902277
-303.328273
-304.213472
-306.278937
-305.688805
-305.393738
-306.574004
-306.869070
-305.688805
-305.098672
-303.918406
-301.262808
-299.787476
-294.771347
-289.755218
-284.444023
-279.132827
-272.936433
-264.674573
-255.822581
-247.855787
-237.528463
-226.906072
-215.103416
-201.825427
-188.547438
-174.974383
-161.106262
-147.533207
-133.960152
-115.075901
-98.257116
-82.323529
-66.980076
-52.521822
-35.703036
-19.474383
-5.016129
9.627580
24.798311
37.926829
51.347092
64.475610
78.187617
90.440901
103.277674
114.363977
126.033771
139.454034
152.582552
163.668856
175.046904
191.384615
206.555347
218.516886
227.852720
238.647280
247.691370
256.443715
264.904315
271.030957
279.491557
286.785178
294.662289
300.205441
303.706379
305.748593
306.623827
307.790807
308.374296
309.249531
309.249531
308.374296
307.499062
305.456848
303.414634
300.788931
296.996248
292.328330
287.660413
281.242026
275.115385
266.946529
257.318949
249.733583
238.355535
227.560976
215.599437
203.054409
187.883677
174.171670
158.709193
144.121951
131.285178
113.196998
94.525328
78.187617
63.600375
49.304878
32.967167
16.629456
2.042214
-12.097723
-27.146110
-41.309298
-54.292220
-68.160342
-80.553131
-94.126186
-105.043643
-117.436433
-130.124288
-142.222011
-155.500000
-166.417457
-175.859583
-191.793169
-205.956357
-218.349146
-228.086338
-235.758065
-244.610057
-254.052182
-263.789374
-267.920304
-278.247628
-284.444023
-291.230550
-296.836812
-301.262808
-304.508539
-305.983871
-306.869070
-307.754269
-307.459203
-306.574004
-305.983871
-305.098672
-303.033207
-300.672676
-298.902277
-295.066414
-289.755218
-284.444023
-279.132827
-272.346300
-264.674573
-255.527514
-246.675522
-236.348197
-226.020873
-214.513283
-202.415560
-188.252372
-173.499051
-159.335863
-144.877609
-131.304554
-114.780835
-96.781784
-79.667932
-66.094877
-49.276091
-34.522770
-18.589184
-3.835863
10.794559
24.798311
39.969043
53.972795
66.517824
79.938086
92.774859
104.736398
116.697936
128.075985
142.079737
153.457786
165.419325
176.213884
190.217636
207.138837
219.392120
228.727955
239.522514
246.524390
257.610694
265.487805
273.364916
280.658537
288.243902
294.662289
299.913696
306.040338
306.623827
307.207317
309.249531
309.249531
309.249531
308.957786
308.957786
308.666041
306.040338
303.414634
301.372420
298.163227
293.203565
288.243902
282.117261
274.531895
266.363039
257.610694
247.983114
239.230769
226.977486
215.599437
203.054409
186.424953
173.004690
157.833959
144.705441
129.534709
112.321764
94.817073
78.187617
62.725141
48.137899
31.508443
15.754221
0.291745
-14.458254
-27.736243
-41.309298
-55.767552
-69.340607
-83.503795
-95.601518
-107.699241
-118.616698
-130.124288
-143.402277
-156.385199
-168.187856
-177.925047
-192.383302
-207.431689
-218.054080
-228.971537
-237.233397
-246.380455
-254.937381
-264.084440
-268.805503
-278.542694
-286.214421
-292.115750
-298.017078
-302.148008
-304.213472
-306.278937
-306.574004
-307.164137
-307.164137
-306.278937
-306.869070
-304.803605
-302.738140
-300.967742
-298.607211
-296.246679
-290.935484
-285.034156
-278.837761
-273.526565
-264.084440
-255.232448
-247.265655
-235.758065
-226.315939
-213.037951
-201.530361
-186.186907
-173.794118
-159.040797
-146.057875
-130.714421
-113.600569
-96.191651
-80.848197
-65.209677
-48.685958
-32.162239
-17.408918
-0.885199
12.836773
27.424015
41.136023
54.556285
67.393058
81.105066
94.233583
106.486867
118.448405
130.118199
141.787992
156.083490
166.586304
177.964353
192.843340
208.014071
219.975610
229.603189
239.230769
247.983114
258.485929
264.320826
272.781426
279.783302
289.119137
295.245779
300.788931
304.289869
306.915572
307.499062
309.833021
308.666041
309.249531
308.666041
307.790807
308.082552
305.456848
304.581614
300.788931
298.163227
293.203565
288.535647
280.950281
275.698874
266.363039
258.485929
249.150094
239.230769
226.685741
216.474672
203.346154
189.050657
173.879925
159.876173
145.288931
132.160413
113.488743
97.442777
80.813321
64.183865
49.304878
32.675422
17.796435
1.458724
-12.687856
-25.965844
-40.424099
-54.292220
-67.570209
-80.553131
-93.831120
-105.338710
-116.846300
-129.239089
-141.926945
-154.614801
-165.827324
-177.039848
-190.907970
-206.251423
-216.283681
-227.201139
-236.348197
-244.905123
-253.757116
-261.428843
-270.870968
-276.477230
-286.214421
-290.935484
-296.836812
-300.967742
-303.623340
-305.393738
-306.869070
-306.574004
-306.869070
-305.688805
-304.508539
-303.918406
-302.738140
-301.852941
-298.607211
-294.476281
-289.755218
-285.034156
-278.542694
-272.051233
-263.494307
-253.462049
-246.085389
-236.348197
-225.430740
-213.628083
-201.235294
-187.367173
-172.613852
-158.155598
-144.582543
-130.419355
-114.485769
-95.601518
-79.962998
-64.619545
-48.390892
-31.867173
-16.523719
-0.885199
11.961538
26.257036
40.552533
55.139775
67.976548
81.105066
93.941839
105.319887
117.281426
128.659475
141.787992
155.208255
166.586304
178.256098
193.718574
207.722326
220.267355
228.436210
239.230769
248.274859
257.902439
264.320826
271.906191
280.075047
288.827392
295.829268
301.080675
304.289869
306.915572
308.082552
308.666041
309.541276
309.833021
310.708255
308.666041
307.790807
305.456848
303.414634
301.664165
298.746717
293.787054
287.952158
282.409006
275.407129
267.238274
258.485929
249.150094
238.647280
227.852720
215.891182
201.887430
188.175422
174.755159
159.292683
146.164165
130.409944
112.613508
95.108818
78.771107
63.892120
49.013133
33.258912
15.754221
1.166979
-12.982922
-27.146110
-41.604364
-54.882353
-68.160342
-82.028463
-95.306452
-105.338710
-116.846300
-130.714421
-142.812144
-155.500000
-166.122391
-178.220114
-192.678368
-207.726755
-218.644213
-226.611006
-236.643264
-246.970588
-254.937381
-263.789374
-269.395636
-277.067362
-285.624288
-292.705882
-298.017078
-302.148008
-304.213472
-305.098672
-305.688805
-306.574004
-306.278937
-306.278937
-305.983871
-305.983871
-302.148008
-300.377609
-298.607211
-294.181214
-290.050285
-284.444023
-279.427894
-271.461101
-264.084440
-255.527514
-246.380455
-236.053131
-224.840607
-213.037951
-200.350095
-187.072106
-172.023719
-158.450664
-146.057875
-131.304554
-113.010436
-95.601518
-79.077799
-64.619545
-49.276091
-33.047438
-18.294118
-0.885199
11.086304
26.548780
40.844278
53.972795
67.393058
79.646341
92.483114
105.028143
117.573171
128.659475
141.496248
154.333021
166.294559
176.797373
192.843340
207.722326
220.559099
228.436210
239.814259
246.816135
257.610694
265.196060
271.906191
281.242026
289.410882
294.370544
300.497186
306.040338
306.623827
308.957786
308.666041
309.541276
309.541276
308.082552
308.666041
307.207317
305.456848
303.706379
300.497186
297.287992
292.620075
287.952158
282.409006
273.948405
266.363039
257.902439
248.566604
238.939024
226.393996
215.307692
201.595685
188.467167
174.171670
157.542214
145.288931
130.701689
112.613508
95.108818
78.479362
63.600375
48.429644
33.258912
17.212946
0.875235
-13.277989
-27.441176
-41.899431
-55.177419
-68.160342
-81.438330
-94.421252
-105.633776
-118.321632
-128.944023
-142.517078
-155.795066
-166.122391
-177.334915
-191.498102
-207.136622
-218.644213
-226.906072
-237.528463
-246.380455
-254.937381
-263.199241
-270.575901
-276.182163
-285.034156
-292.410816
-298.607211
-302.738140
-304.803605
-305.688805
-306.574004
-306.574004
-306.574004
-305.983871
-306.574004
-304.213472
-302.148008
-302.738140
-298.017078
-294.181214
-290.935484
-285.329222
-278.542694
-272.346300
-262.904175
-254.937381
-246.380455
-236.348197
-224.545541
-214.218216
-200.055028
-187.367173
-173.203985
-157.860531
-145.467742
-129.534156
-111.240038
-94.126186
-79.372865
-64.029412
-48.685958
-33.047438
-15.343454
-1.475332
13.420263
27.715760
41.719512
54.556285
67.684803
81.105066
93.358349
105.611632
116.114447
128.659475
141.787992
154.916510
165.419325
176.505629
191.676360
208.305816
219.392120
228.727955
238.647280
248.566604
256.735460
264.904315
271.906191
280.950281
287.952158
294.370544
299.913696
303.414634
306.623827
307.207317
308.666041
309.249531
308.666041
309.541276
308.374296
308.082552
306.040338
304.289869
301.955910
298.746717
292.328330
287.076923
281.242026
275.407129
265.779550
258.194184
249.441839
238.647280
226.685741
216.182927
201.887430
190.217636
173.588180
159.000938
145.580675
131.285178
112.613508
96.567542
79.646341
63.892120
49.888368
33.258912
18.088180
2.042214
-11.802657
-25.670778
-39.833966
-54.292220
-66.980076
-80.553131
-92.945920
-104.158444
-117.141366
-129.239089
-141.926945
-155.204934
-165.532258
-176.744782
-191.498102
-205.366224
-218.644213
-226.611006
-237.233397
-244.610057
-255.527514
-262.904175
-267.920304
-277.952562
-285.624288
-290.640417
-296.541746
-301.557875
-303.033207
-305.688805
-306.574004
-306.278937
-305.983871
-306.278937
-305.688805
-303.328273
-302.738140
-300.082543
-297.426945
-293.886148
-288.870019
-284.148956
-278.542694
-272.641366
-262.314042
-253.757116
-246.085389
-234.282732
-224.250474
-212.152751
-200.055028
-187.662239
-171.433586
-157.860531
-144.287476
-129.829222
-112.125237
-93.536053
-78.487666
-64.619545
-48.390892
-31.277040
-15.933586
0.291745
13.128518
27.424015
41.136023
55.431520
68.268293
80.813321
94.233583
106.486867
116.406191
129.242964
142.079737
155.208255
165.711069
177.964353
192.551595
207.138837
219.683865
229.311445
239.814259
247.691370
257.610694
264.904315
271.614447
281.242026
288.535647
295.245779
301.080675
304.581614
306.332083
307.790807
309.249531
309.249531
309.833021
308.957786
308.957786
308.082552
306.915572
304.289869
301.372420
297.579737
293.495310
287.076923
282.700750
275.407129
266.363039
257.610694
249.733583
238.063790
226.393996
215.015947
202.762664
188.758912
174.755159
159.000938
146.747655
131.868668
114.363977
96.275797
79.354597
65.059099
49.304878
34.425891
17.796435
3.500938
-12.392789
-25.375712
-39.538899
-52.521822
-66.094877
-79.667932
-92.945920
-103.863378
-116.256167
-127.468691
-141.041746
-153.729602
-165.532258
-175.564516
-190.612903
-206.251423
-217.463947
-227.496205
-236.643264
-245.200190
-254.642315
-262.609108
-269.690702
-276.772296
-283.853890
-291.820683
-298.017078
-300.967742
-304.508539
-306.278937
-305.098672
-305.983871
-305.983871
-305.688805
-304.803605
-304.213472
-302.148008
-301.262808
-298.017078
-294.181214
-289.165085
-283.263757
-277.952562
-272.051233
-262.904175
-253.757116
-245.495256
-235.758065
-224.250474
-212.152751
-200.055028
-185.891841
-171.138520
-157.565465
-143.697343
-129.534156
-111.830171
-93.240987
-78.192600
-62.554080
-47.505693
-28.916509
-14.753321
0.875235
14.295497
28.590994
42.594747
56.598499
70.018762
83.439024
95.400563
107.653846
119.323640
130.993433
143.830206
155.791745
167.461538
178.839587
194.010319
209.181051
220.559099
229.603189
239.522514
249.733583
258.485929
266.071295
272.781426
281.825516
288.827392
296.412758
300.205441
305.456848
307.207317
309.249531
309.541276
308.957786
309.541276
308.666041
308.957786
308.082552
305.456848
303.706379
301.372420
297.579737
292.911820
287.368668
282.117261
275.698874
267.530019
258.777674
248.274859
238.647280
226.685741
215.015947
202.179174
188.175422
174.755159
157.833959
146.164165
130.409944
112.321764
95.984053
78.771107
63.892120
49.888368
33.550657
17.504690
1.750469
-12.687856
-27.736243
-41.899431
-54.292220
-68.455408
-82.618596
-93.240987
-106.223909
-117.436433
-130.124288
-143.107211
-155.500000
-167.302657
-177.334915
-191.793169
-207.431689
-218.349146
-226.906072
-236.643264
-246.380455
-254.347249
-264.084440
-269.395636
-278.247628
-284.444023
-292.115750
-298.017078
-303.033207
-303.918406
-304.508539
-306.574004
-305.098672
-306.869070
-305.983871
-304.803605
-304.803605
-301.852941
-300.967742
-298.607211
-295.361480
-289.165085
-285.624288
-277.657495
-271.756167
-262.609108
-254.347249
-245.200190
-235.167932
-223.955408
-213.037951
-198.284630
-185.006641
-170.253321
-156.385199
-143.107211
-128.648956
-110.649905
-93.536053
-77.307400
-62.259013
-46.325427
-30.686907
-13.868121
2.625704
15.754221
29.466229
44.636961
57.765478
71.185741
84.022514
97.442777
107.362101
118.448405
131.285178
144.413696
156.666979
167.753283
180.590056
194.885553
209.472795
220.267355
229.894934
240.689493
248.858349
258.777674
266.071295
273.948405
281.242026
289.702627
296.412758
301.664165
305.165103
307.207317
309.249531
309.833021
310.124765
309.833021
309.833021
309.541276
307.790807
304.873358
303.706379
301.664165
297.871482
293.203565
287.660413
282.117261
275.407129
266.654784
257.902439
248.566604
237.772045
227.560976
215.307692
202.762664
187.008443
173.879925
159.292683
144.997186
131.868668
114.072233
95.692308
79.938086
63.892120
50.471857
32.675422
17.212946
0.291745
-12.392789
-26.555977
-39.833966
-54.292220
-66.685009
-81.438330
-93.831120
-105.928843
-117.141366
-129.534156
-141.041746
-155.204934
-166.417457
-177.334915
-192.383302
-206.251423
-218.939279
-228.381404
-237.528463
-246.380455
-255.527514
-263.789374
-269.985769
-277.657495
-285.329222
-291.525617
-298.312144
-302.148008
-303.918406
-305.983871
-306.278937
-306.574004
-306.574004
-305.688805
-305.688805
-303.918406
-301.852941
-299.787476
-298.017078
-293.886148
-289.755218
-284.148956
-278.542694
-271.166034
-264.084440
-254.052182
-245.200190
-236.348197
-224.840607
-212.152751
-199.169829
-185.301708
-171.433586
-155.204934
-144.287476
-128.648956
-110.649905
-92.945920
-77.602467
-61.373814
-46.915560
-30.096774
-14.753321
0.583490
14.587242
29.466229
42.886492
56.015009
69.727017
81.980300
94.817073
105.903377
118.740150
130.993433
142.954972
155.791745
167.461538
177.964353
192.843340
209.472795
221.142589
229.311445
240.397749
248.274859
258.485929
265.487805
273.948405
281.825516
288.243902
295.537523
301.080675
305.456848
306.623827
309.249531
308.666041
309.541276
309.249531
308.666041
308.666041
306.915572
304.581614
303.706379
301.080675
297.579737
293.787054
287.076923
281.825516
274.823640
265.779550
258.777674
247.983114
237.772045
227.269231
215.307692
201.887430
188.467167
174.755159
159.584428
146.747655
131.285178
114.072233
96.275797
81.396811
66.226079
49.596623
33.842402
19.546904
2.333959
-12.097723
-26.260911
-40.129032
-54.292220
-67.570209
-80.553131
-92.945920
-103.273245
-116.551233
-128.648956
-142.517078
-154.614801
-165.237192
-177.925047
-191.203036
-206.546490
-218.054080
-227.201139
-237.823529
-245.495256
-254.052182
-262.018975
-269.690702
-275.887097
-284.444023
-292.705882
-298.607211
-301.262808
-303.918406
-304.803605
-305.983871
-305.393738
-306.574004
-305.393738
-304.508539
-304.213472
-302.443074
-300.082543
-296.836812
-293.886148
-289.165085
-282.673624
-277.362429
-271.756167
-260.543643
-252.871917
-243.724858
-233.692600
-223.365275
-210.382353
-198.874763
-186.186907
-170.843454
-155.500000
-143.697343
-127.173624
-110.354839
-92.945920
-77.012334
-60.783681
-45.440228
-29.506641
-13.277989
0.875235
16.045966
28.882739
43.469981
57.765478
70.018762
83.147280
95.692308
107.653846
119.323640
131.285178
143.246717
156.666979
168.045028
178.839587
194.010319
209.472795
220.559099
230.186679
239.814259
249.150094
259.069418
266.654784
274.240150
283.284240
289.410882
295.537523
301.080675
306.040338
306.623827
308.666041
309.541276
309.833021
309.833021
309.541276
309.541276
308.374296
306.623827
304.289869
301.664165
297.287992
292.620075
287.368668
281.242026
276.282364
266.654784
258.194184
248.858349
238.063790
227.560976
215.307692
201.303940
188.175422
172.712946
158.417448
145.580675
129.242964
112.613508
95.400563
80.229831
64.183865
50.180113
31.800188
16.921201
0.291745
-12.982922
-28.326376
-41.309298
-55.767552
-69.340607
-81.438330
-95.896584
-106.814042
-117.141366
-130.124288
-142.517078
-156.090133
-166.417457
-178.220114
-192.383302
-207.431689
-217.759013
-227.791271
-237.528463
-246.085389
-255.527514
-262.609108
-271.166034
-277.657495
-285.919355
-292.705882
-298.312144
-302.738140
-303.623340
-306.278937
-306.869070
-306.574004
-305.098672
-307.164137
-305.098672
-303.918406
-302.148008
-300.967742
-297.722011
-294.181214
-288.574953
-283.263757
-277.952562
-271.756167
-264.084440
-254.052182
-244.610057
-232.807400
-222.775142
-210.382353
-197.694497
-183.826376
-169.958254
-154.319734
-142.812144
-126.288425
-108.584440
-91.470588
-76.422201
-61.668880
-45.735294
-29.211575
-12.982922
2.917448
15.462477
31.216698
44.636961
58.640713
72.352720
84.314259
96.275797
107.362101
120.198874
133.035647
145.580675
157.250469
169.503752
180.006567
194.885553
210.639775
221.434334
230.478424
240.106004
249.150094
258.485929
266.071295
274.531895
281.825516
289.702627
295.829268
300.788931
304.581614
306.915572
308.374296
309.249531
309.249531
310.416510
309.833021
309.541276
308.374296
306.623827
303.998124
302.247655
298.163227
293.203565
287.076923
282.992495
275.115385
266.363039
257.318949
249.150094
237.772045
227.852720
215.015947
201.012195
187.300188
175.046904
157.833959
146.164165
131.285178
112.613508
95.692308
79.354597
64.767355
49.304878
34.134146
18.088180
2.042214
-11.802657
-26.555977
-39.538899
-53.997154
-66.094877
-80.553131
-93.240987
-105.338710
-115.961101
-129.239089
-142.222011
-154.319734
-164.942125
-177.039848
-193.268501
-207.136622
-218.939279
-227.496205
-238.413662
-245.200190
-255.527514
-262.018975
-269.690702
-278.247628
-283.263757
-292.410816
-298.017078
-301.262808
-302.738140
-304.213472
-305.983871
-306.574004
-305.688805
-305.393738
-304.803605
-302.148008
-301.852941
-299.197343
-297.131879
-293.591082
-287.689753
-282.083491
-276.477230
-269.690702
-261.428843
-252.576850
-242.544592
-233.397533
-222.480076
-210.972486
-197.989564
-185.301708
-170.253321
-155.795066
-143.402277
-127.173624
-109.469639
-92.945920
-77.307400
-60.488615
-45.735294
-28.621442
-13.868121
1.458724
16.629456
30.341463
44.636961
57.765478
71.477486
83.439024
96.859287
107.945591
118.740150
132.160413
145.580675
156.375235
167.461538
179.423077
194.593809
210.348030
220.850844
230.186679
239.522514
249.733583
258.194184
265.779550
274.240150
281.242026
290.286116
295.537523
301.080675
304.873358
306.332083
307.790807
309.833021
310.124765
309.833021
309.249531
308.957786
308.374296
305.456848
304.581614
301.372420
297.871482
293.203565
287.660413
282.409006
275.115385
266.654784
257.902439
248.274859
238.647280
228.144465
215.015947
202.762664
187.591932
173.296435
159.292683
145.288931
132.743902
112.905253
96.275797
79.938086
64.183865
50.180113
34.425891
19.546904
2.625704
-11.802657
-25.670778
-39.833966
-53.407021
-66.980076
-79.962998
-92.945920
-104.748577
-116.846300
-128.648956
-142.812144
-154.024668
-165.532258
-176.744782
-191.203036
-206.841556
-217.463947
-226.906072
-237.233397
-244.905123
-254.642315
-262.018975
-270.280835
-277.067362
-285.034156
-291.525617
-299.197343
-302.148008
-302.738140
-304.508539
-305.098672
-305.983871
-306.574004
-305.098672
-305.098672
-303.918406
-300.967742
-300.672676
-296.836812
-293.886148
-289.165085
-283.263757
-277.657495
-270.870968
-261.428843
-251.691651
-244.610057
-234.282732
-223.070209
-210.677419
-197.989564
-183.236243
-169.368121
-154.909867
-142.222011
-126.288425
-108.879507
-91.175522
-75.537002
-60.193548
-44.555028
-27.146110
-12.687856
3.209193
16.921201
32.967167
46.095685
59.515947
72.936210
85.481238
97.151032
109.696060
119.907129
133.910882
145.580675
157.833959
168.628518
180.881801
196.052533
211.223265
222.309568
231.353659
241.856473
249.441839
259.652908
267.238274
275.115385
282.700750
289.994371
295.829268
301.372420
306.332083
307.207317
309.541276
310.124765
310.124765
310.124765
309.833021
309.541276
308.082552
305.748593
303.998124
301.080675
297.579737
293.495310
287.660413
282.409006
274.823640
266.363039
256.735460
247.983114
237.772045
225.810507
215.307692
202.470919
187.008443
173.296435
158.709193
144.705441
129.826454
112.905253
94.817073
78.771107
63.892120
49.596623
32.383677
15.462477
2.333959
-13.277989
-26.851044
-41.014231
-54.882353
-68.160342
-81.143264
-94.421252
-106.814042
-118.616698
-131.009488
-142.517078
-156.680266
-166.712524
-177.629981
-193.858634
-207.431689
-219.234345
-228.381404
-239.003795
-246.380455
-256.707780
-263.199241
-270.280835
-278.542694
-286.214421
-291.230550
-297.426945
-300.672676
-304.508539
-305.688805
-306.574004
-306.574004
-306.278937
-305.688805
-305.983871
-304.508539
-300.967742
-301.262808
-297.131879
-293.296015
-289.755218
-283.263757
-277.362429
-269.395636
-262.018975
-252.576850
-244.314991
-233.102467
-221.594877
-209.792220
-197.399431
-183.531309
-167.892789
-154.909867
-140.156546
-126.288425
-107.404175
-89.995256
-73.176471
-59.013283
-43.374763
-28.326376
-12.097723
3.792683
18.088180
31.508443
45.512195
58.932458
72.060976
85.189493
98.609756
110.279550
120.782364
133.910882
146.455910
158.417448
169.795497
181.173546
197.803002
210.931520
222.017824
231.061914
242.439962
249.150094
259.361163
266.654784
275.407129
281.533771
289.119137
296.996248
301.664165
305.456848
308.374296
309.833021
311.000000
310.124765
311.000000
308.957786
309.833021
307.790807
306.332083
303.998124
301.664165
297.871482
293.495310
287.660413
281.242026
275.698874
266.654784
257.610694
248.274859
238.063790
226.977486
215.015947
201.887430
187.883677
171.837711
159.000938
146.164165
130.993433
112.321764
95.108818
79.062852
63.600375
49.013133
33.550657
17.504690
1.750469
-12.392789
-26.260911
-40.129032
-53.407021
-66.685009
-79.962998
-93.831120
-105.043643
-118.026565
-129.239089
-141.631879
-155.795066
-167.007590
-177.925047
-192.088235
-207.726755
-218.644213
-226.611006
-237.823529
-245.790323
-256.117647
-262.904175
-269.690702
-277.362429
-283.853890
-291.820683
-296.541746
-301.262808
-303.328273
-305.983871
-304.213472
-305.983871
-305.098672
-306.278937
-305.393738
-303.033207
-300.377609
-298.902277
-295.361480
-293.296015
-288.279886
-282.083491
-277.067362
-269.100569
-261.428843
-252.871917
-242.839658
-233.397533
-222.185009
-210.382353
-197.104364
-184.121442
-168.482922
-155.795066
-140.746679
-125.698292
-108.879507
-91.175522
-75.537002
-59.308349
-44.850095
-29.211575
-11.802657
2.333959
17.212946
30.924953
46.679174
58.932458
72.644465
85.481238
96.859287
108.820826
119.031895
131.868668
145.580675
158.125704
169.212008
180.590056
195.760788
210.639775
222.017824
231.061914
240.397749
250.900563
259.652908
266.071295
274.240150
282.117261
290.869606
296.412758
301.664165
305.748593
308.082552
308.374296
309.833021
310.416510
309.833021
309.833021
308.666041
307.499062
306.040338
304.289869
300.205441
297.871482
292.620075
287.952158
280.950281
275.990619
265.779550
257.902439
249.150094
237.772045
226.393996
215.599437
202.762664
188.758912
173.588180
159.292683
145.872420
132.452158
114.072233
95.400563
79.062852
64.475610
49.304878
34.134146
18.379925
2.042214
-13.868121
-26.260911
-40.719165
-53.997154
-67.865275
-79.962998
-93.831120
-104.748577
-115.961101
-128.648956
-142.222011
-155.204934
-165.532258
-178.220114
-191.203036
-207.726755
-217.759013
-226.906072
-237.823529
-246.085389
-254.052182
-263.199241
-269.100569
-277.657495
-285.329222
-292.410816
-297.426945
-300.377609
-302.148008
-304.213472
-304.803605
-305.983871
-306.869070
-305.688805
-304.803605
-303.033207
-301.852941
-298.607211
-296.541746
-293.000949
-288.574953
-282.083491
-275.887097
-271.166034
-262.018975
-252.576850
-243.724858
-231.922201
-221.594877
-210.087287
-196.514231
-183.531309
-168.777989
-153.729602
-140.746679
-123.927894
-108.289374
-91.175522
-75.537002
-60.193548
-43.669829
-27.736243
-10.917457
4.084428
17.504690
32.675422
46.095685
59.515947
73.519700
84.897749
98.026266
109.404315
121.365854
133.910882
146.164165
158.709193
169.212008
181.465291
195.177298
211.515009
221.726079
231.645403
240.981238
250.608818
