-179.768786
-174.675337
55.483568
36.794366
-230.403661
-229.504817
-248.680154
-257.968208
-265.158960
-273.847784
-279.240848
-290.626204
-291.824663
-299.614644
-300.213873
-303.809249
-302.610790
-303.509634
-305.007707
-305.007707
-306.805395
-298.416185
-300.813102
-296.318882
-295.120424
-289.128131
-280.139692
-275.945087
-266.956647
-257.668593
-250.477842
-235.197495
-221.415222
-212.726397
-198.045279
-180.967245
-166.885356
-145.612717
-130.332370
-109.059730
-85.989403
-70.109827
-56.027938
-37.152216
-18.875723
-0.599229
13.432864
27.449765
42.634742
54.315493
67.748357
80.889202
88.481690
99.578404
110.383099
118.267606
124.107981
133.452582
139.876995
154.185915
164.406573
174.335211
183.971831
190.104225
200.616901
216.385915
228.358685
235.951174
237.703286
254.640376
258.436620
266.905164
273.329577
285.010329
290.266667
292.310798
296.691080
302.531455
307.787793
311.000000
305.743662
308.371831
306.327700
306.035681
308.663850
307.495775
308.663850
308.079812
301.071362
300.487324
298.735211
287.930516
284.134272
279.169953
273.621596
263.984977
256.976526
242.667606
235.075117
222.518310
211.129577
198.280751
184.555869
168.494836
157.690141
143.089202
129.072300
110.967136
93.738028
80.013146
66.580282
51.103286
34.166197
18.397183
1.460094
-11.984586
-26.066474
-40.447977
-53.331407
-68.911368
-81.794798
-93.180154
-105.763969
-118.647399
-132.130058
-147.710019
-159.694605
-171.079961
-183.963391
-198.944123
-213.924855
-224.111753
-231.302505
-242.687861
-253.773603
-263.361272
-271.450867
-277.143545
-284.633911
-292.124277
-300.813102
-301.412331
-307.105010
-305.906551
-311.000000
-308.303468
-311.000000
-307.404624
-309.501927
-310.400771
-304.408478
-302.011561
-302.610790
-299.914258
-295.420039
-287.630058
-280.139692
-272.948940
-262.762042
-253.174374
-243.287091
-232.201349
-221.115607
-208.232177
-193.251445
-180.068401
-163.289981
-146.811175
-128.235067
-114.452794
-97.973988
-78.499037
-62.020231
-43.743738
-28.463391
-12.284200
1.752113
17.813146
32.414085
45.846948
58.987793
70.376526
82.933333
92.861972
106.002817
116.807512
125.568075
136.956808
149.513615
161.486385
172.583099
181.927700
195.360563
209.669484
222.226291
229.526761
237.995305
249.384038
256.100469
265.153052
270.993427
276.541784
283.842254
290.266667
296.983099
301.947418
303.699531
308.079812
307.787793
307.787793
309.831925
307.495775
308.663850
306.035681
304.867606
304.575587
301.071362
299.319249
293.186854
290.850704
282.966197
278.877934
271.577465
261.356808
253.764319
243.543662
231.570892
221.934272
209.669484
197.112676
182.511737
169.370892
154.769953
141.045070
127.028169
108.923005
91.109859
77.092958
62.492019
49.643192
32.998122
16.353052
1.460094
-14.081888
-28.163776
-41.646435
-56.027938
-70.109827
-82.094412
-95.577071
-107.861272
-121.343931
-134.526975
-148.608863
-161.192678
-171.679191
-186.659923
-202.239884
-215.722543
-225.010597
-235.197495
-243.586705
-254.672447
-264.559730
-271.450867
-277.143545
-285.532755
-291.225434
-299.015414
-302.311175
-303.809249
-308.902697
-308.003854
-308.902697
-309.202312
-309.202312
-309.202312
-308.603083
-306.505780
-305.307322
-302.011561
-299.914258
-292.723507
-288.828516
-280.738921
-274.746628
-266.057803
-256.769750
-245.983622
-236.096339
-224.411368
-211.228324
-199.243738
-183.064547
-169.282274
-153.402697
-138.421965
-124.040462
-104.265896
-87.487476
-69.210983
-54.829480
-38.650289
-22.770713
-5.692678
9.052582
23.361502
37.086385
51.687324
63.660094
74.464789
88.773709
101.038498
112.135211
123.523944
134.328638
147.177465
159.442254
170.830986
179.299531
193.900469
208.793427
219.598122
228.942723
237.995305
247.923944
256.976526
265.153052
272.161502
278.293897
285.010329
292.310798
299.319249
302.531455
306.035681
305.743662
306.911737
308.663850
307.203756
308.079812
308.955869
305.743662
304.575587
303.991549
301.363380
298.151174
295.230986
290.558685
282.966197
277.125822
268.949296
260.480751
252.304225
242.375587
230.986854
219.598122
208.501408
194.776526
179.883568
164.990610
151.265728
139.292958
122.063850
106.294836
89.649765
72.712676
59.863850
43.510798
28.909859
13.432864
-1.498073
-15.879576
-30.860308
-44.342967
-58.424855
-73.105973
-85.689788
-97.973988
-109.958574
-124.639692
-138.421965
-152.204239
-164.788054
-174.675337
-189.656069
-204.636802
-216.921002
-226.508671
-235.497110
-246.582852
-257.368979
-265.758189
-272.050096
-279.240848
-285.832370
-293.622351
-299.315029
-302.610790
-307.704239
-307.105010
-308.603083
-310.400771
-309.801541
-309.501927
-309.801541
-307.105010
-305.007707
-303.509634
-303.210019
-300.513487
-296.318882
-289.128131
-282.836224
-275.945087
-266.956647
-257.368979
-247.781310
-237.294798
-224.710983
-212.426782
-198.944123
-185.761079
-169.282274
-154.601156
-138.122351
-124.639692
-107.262042
-88.086705
-71.607900
-55.129094
-40.148362
-23.369942
-8.688825
7.300469
22.777465
35.918310
49.643192
62.492019
73.588732
88.189671
99.870423
110.967136
122.355869
135.496714
147.469484
159.734272
170.538967
180.467606
193.900469
210.253521
220.182160
229.526761
238.287324
248.215962
257.268545
265.737089
271.577465
279.169953
285.594366
292.018779
299.319249
302.823474
303.991549
306.035681
307.203756
308.371831
308.663850
308.371831
308.663850
308.079812
305.159624
302.823474
301.655399
298.735211
294.646948
287.346479
281.506103
276.541784
267.781221
259.604695
250.260094
241.499531
230.694836
219.014085
207.917371
193.024413
179.299531
165.282629
150.681690
139.292958
122.355869
104.250704
88.189671
72.420657
58.695775
44.386854
27.741784
11.680751
-1.198459
-17.976879
-31.159923
-44.642582
-59.623314
-72.806358
-85.989403
-99.472062
-110.258189
-124.639692
-136.923892
-151.904624
-163.289981
-174.076108
-189.955684
-206.134875
-218.119461
-228.006744
-235.796724
-246.283237
-258.567437
-264.260116
-274.147399
-278.042389
-286.731214
-293.622351
-299.315029
-305.007707
-306.505780
-308.003854
-308.902697
-307.704239
-308.003854
-307.704239
-308.303468
-306.805395
-305.606936
-302.910405
-300.513487
-298.116570
-293.322736
-287.330443
-281.637765
-275.046243
-267.256262
-255.870906
-246.882466
-235.796724
-226.209056
-212.127168
-197.446050
-186.060694
-169.881503
-154.601156
-139.021195
-124.340077
-106.363198
-89.884393
-72.506744
-56.627168
-41.646435
-26.066474
-9.288054
5.256338
21.025352
35.042254
48.183099
62.200000
73.004695
86.437559
99.578404
110.967136
122.647887
134.912676
147.177465
159.734272
170.538967
180.759624
195.652582
209.377465
220.182160
229.818779
237.411268
248.215962
257.560563
266.029108
273.329577
279.753991
287.930516
293.186854
300.195305
303.699531
305.743662
307.495775
307.787793
308.663850
308.079812
308.371831
307.495775
306.911737
306.619718
304.867606
302.239437
298.735211
294.062911
289.390610
282.966197
275.081690
266.905164
257.560563
249.676056
240.039437
228.358685
216.677934
205.873239
190.980282
178.131455
161.486385
148.637559
134.328638
117.391549
101.622535
85.269484
69.208451
56.359624
40.006573
24.821596
7.884507
-5.093449
-20.373796
-34.755299
-48.237958
-62.319846
-76.102119
-89.285164
-102.468208
-112.954721
-126.437380
-142.316956
-154.900771
-166.585742
-178.270713
-194.150289
-208.831407
-220.216763
-229.205202
-237.894027
-248.979769
-258.567437
-265.458574
-272.948940
-279.840077
-287.630058
-293.921965
-301.412331
-305.906551
-307.404624
-308.303468
-308.902697
-311.000000
-308.603083
-309.801541
-308.902697
-307.704239
-305.906551
-304.108863
-300.213873
-299.015414
-293.622351
-287.929672
-280.139692
-273.847784
-265.758189
-255.571291
-246.882466
-236.995183
-224.411368
-211.527938
-198.944123
-184.862235
-167.784200
-154.001927
-138.721580
-124.639692
-105.763969
-88.985549
-71.907514
-56.627168
-41.047206
-24.868015
-9.587669
7.008451
21.317371
35.626291
49.351174
60.739906
74.172770
87.313615
100.746479
112.427230
122.647887
136.080751
146.885446
160.318310
171.707042
181.927700
197.404695
212.297653
222.226291
230.110798
239.163380
249.676056
259.604695
267.781221
273.913615
280.922066
287.054460
295.523005
300.195305
302.531455
305.743662
306.327700
307.787793
308.079812
306.911737
307.203756
307.203756
306.911737
305.159624
302.239437
300.195305
298.151174
293.478873
286.470423
282.674178
273.329577
264.569014
256.100469
249.384038
238.287324
227.482629
215.801878
203.245070
190.396244
175.795305
160.902347
147.469484
133.160563
116.515493
99.578404
83.809390
68.040376
54.607512
39.714554
23.069484
7.300469
-7.490366
-22.770713
-36.253372
-50.335260
-62.919075
-77.899807
-90.483622
-102.767823
-114.752408
-127.635838
-141.717726
-153.402697
-166.585742
-178.570328
-194.150289
-209.131021
-220.516378
-230.403661
-240.590559
-249.878613
-259.166667
-267.256262
-275.046243
-280.738921
-289.427746
-295.120424
-300.213873
-303.210019
-305.906551
-307.404624
-308.003854
-309.202312
-308.603083
-308.603083
-308.003854
-306.206166
-306.505780
-303.509634
-301.412331
-297.816956
-292.423892
-287.929672
-279.840077
-274.447013
-263.361272
-254.972062
-245.983622
-235.197495
-224.111753
-210.928709
-197.146435
-184.263006
-168.683044
-153.402697
-138.421965
-124.340077
-105.763969
-88.985549
-73.105973
-56.926782
-41.946050
-25.766859
-10.186898
5.256338
21.901408
35.042254
47.307042
61.323944
74.756808
86.437559
99.870423
110.967136
123.231925
135.496714
148.345540
161.778404
170.830986
182.219718
197.404695
211.129577
223.102347
230.110798
240.331455
250.552113
260.188732
267.197183
275.081690
281.214085
288.806573
294.646948
301.655399
304.575587
306.619718
307.787793
308.079812
309.247887
307.787793
307.787793
306.911737
306.327700
302.531455
301.947418
299.027230
296.107042
291.726761
285.594366
280.630047
273.913615
264.276995
255.808451
247.047887
237.411268
225.438498
214.925822
201.784977
186.600000
174.043192
157.690141
144.257277
130.824413
114.179343
97.242254
81.181221
64.828169
52.271362
34.750235
19.857277
3.504225
-9.887283
-25.766859
-40.148362
-54.529865
-66.214836
-80.296724
-92.880539
-104.865125
-118.647399
-131.231214
-144.713873
-158.496146
-168.383430
-180.967245
-196.247592
-211.827553
-223.212909
-232.201349
-240.290944
-250.777457
-259.765896
-268.754335
-274.746628
-281.038536
-289.427746
-295.719653
-302.311175
-305.906551
-307.404624
-309.501927
-309.801541
-310.101156
-310.101156
-308.902697
-308.603083
-306.805395
-305.007707
-302.910405
-301.711946
-296.618497
-293.322736
-286.431599
-279.540462
-272.948940
-264.260116
-253.174374
-244.485549
-233.399807
-222.613680
-211.527938
-197.146435
-182.165703
-167.184971
-151.605010
-136.923892
-121.044316
-104.565511
-85.989403
-71.008671
-54.230250
-39.249518
-23.070328
-7.190751
7.592488
21.317371
36.502347
49.643192
63.952113
75.632864
88.481690
101.038498
112.427230
124.400000
136.956808
149.513615
162.362441
172.291080
184.555869
200.032864
212.589671
224.270423
232.446948
240.915493
251.136150
261.356808
269.533333
275.665728
281.798122
289.390610
298.151174
301.655399
306.035681
306.035681
307.787793
307.495775
308.663850
308.955869
308.079812
306.035681
305.159624
303.407512
301.655399
299.027230
296.107042
290.266667
285.010329
279.753991
272.453521
264.569014
255.516432
247.339906
235.367136
224.562441
214.049765
199.740845
185.723944
171.999061
156.522066
143.089202
128.488263
112.719249
94.614085
80.597183
63.076056
50.227230
33.582160
17.813146
2.920188
-12.284200
-26.665703
-41.346821
-54.529865
-68.012524
-81.495183
-92.880539
-105.763969
-118.347784
-130.931599
-145.313102
-157.896917
-168.683044
-181.266859
-197.446050
-210.029865
-222.314066
-232.500963
-241.489403
-251.676301
-261.263969
-269.353565
-275.945087
-282.536609
-290.326590
-297.517341
-302.011561
-303.210019
-308.603083
-307.704239
-309.501927
-310.101156
-309.801541
-308.902697
-307.105010
-305.307322
-304.408478
-301.412331
-299.914258
-295.420039
-290.026975
-284.034682
-276.843931
-271.750482
-261.263969
-252.874759
-243.886320
-233.699422
-222.314066
-208.831407
-195.947977
-180.967245
-166.286127
-151.305395
-136.324663
-120.145472
-102.767823
-84.491329
-69.810212
-53.930636
-39.249518
-22.471098
-7.190751
7.884507
22.193427
37.670423
49.351174
63.660094
76.216901
88.189671
100.454460
111.843192
123.231925
137.540845
149.221596
162.946479
172.583099
184.847887
200.616901
214.633803
223.978404
232.446948
242.083568
252.012207
263.692958
270.117371
275.373709
283.842254
290.558685
296.691080
301.947418
304.867606
305.743662
307.787793
308.079812
306.911737
307.203756
308.663850
306.327700
306.911737
304.575587
301.947418
300.195305
295.523005
291.142723
284.718310
278.293897
270.701408
261.940845
252.888263
245.295775
233.907042
222.810329
212.005634
198.864789
184.555869
169.078873
155.061972
140.169014
126.736150
108.338967
91.401878
75.340845
60.739906
46.138967
29.201878
14.600939
0.292019
-14.980732
-28.763006
-42.545279
-57.226397
-70.109827
-83.592486
-95.277457
-107.861272
-120.145472
-134.826590
-146.811175
-160.893064
-170.181118
-183.963391
-200.741811
-214.224470
-225.310212
-233.699422
-244.185934
-255.271676
-263.660886
-270.252408
-276.544316
-284.034682
-291.225434
-297.517341
-303.509634
-305.906551
-306.206166
-308.603083
-308.902697
-309.202312
-309.202312
-309.202312
-308.303468
-305.906551
-305.606936
-305.007707
-300.213873
-295.719653
-290.925819
-285.532755
-279.240848
-269.353565
-261.263969
-251.376686
-242.687861
-231.602119
-221.714836
-208.232177
-194.449904
-180.368015
-163.289981
-149.807322
-136.324663
-119.246628
-101.269750
-84.191715
-68.911368
-53.331407
-37.751445
-22.171484
-5.992293
8.760563
24.821596
36.502347
51.103286
65.120188
76.800939
91.109859
102.790610
113.887324
124.984038
137.832864
151.265728
162.654460
173.459155
186.307981
201.784977
214.341784
224.562441
233.615023
242.375587
254.056338
262.524883
270.409390
276.833803
282.966197
292.310798
298.151174
302.239437
304.283568
304.867606
307.495775
307.495775
309.539906
308.079812
308.079812
306.327700
304.575587
303.991549
301.363380
298.735211
295.230986
289.098592
284.134272
277.417840
270.409390
261.064789
253.180282
243.835681
232.446948
221.350235
211.129577
197.404695
182.511737
168.786854
153.309859
141.337089
124.692019
107.754930
90.233803
75.048826
59.279812
44.970892
28.909859
14.600939
-2.097303
-16.478805
-29.362235
-44.342967
-57.825626
-71.008671
-84.491329
-97.075145
-109.658960
-121.343931
-133.927746
-148.009634
-160.293834
-171.079961
-184.562620
-200.741811
-215.123314
-224.710983
-232.500963
-243.886320
-252.874759
-262.462428
-270.252408
-276.843931
-284.933526
-291.225434
-298.116570
-302.910405
-305.307322
-308.303468
-308.303468
-309.202312
-307.404624
-307.404624
-308.303468
-306.206166
-306.805395
-304.408478
-301.711946
-299.914258
-295.420039
-290.326590
-284.334297
-278.042389
-269.952794
-259.166667
-251.676301
-241.489403
-231.302505
-217.819846
-206.734104
-193.850674
-177.671484
-162.391137
-148.309249
-133.028902
-117.748555
-98.273603
-83.592486
-65.615607
-50.035645
-35.953757
-18.576108
-4.194605
12.264789
25.405634
39.130516
52.855399
65.704225
78.845070
91.401878
103.666667
115.931455
127.904225
140.461033
153.017840
165.866667
175.211268
188.352113
204.705164
216.969953
226.314554
235.659155
245.587793
256.100469
264.276995
271.869484
278.585915
283.842254
293.186854
298.443192
302.531455
305.159624
306.911737
307.203756
309.247887
309.539906
308.371831
308.371831
306.327700
305.451643
303.115493
301.655399
298.443192
294.646948
288.806573
284.426291
276.249765
268.657277
261.064789
252.012207
242.083568
230.986854
219.598122
208.501408
194.484507
181.343662
164.990610
150.097653
138.416901
121.187793
103.958685
86.437559
72.128638
57.819718
41.466667
26.573709
10.512676
-3.894990
-17.677264
-32.957611
-47.339114
-61.121387
-75.502890
-87.787091
-100.670520
-111.157033
-125.238921
-138.721580
-151.305395
-163.289981
-173.776493
-187.558767
-204.037572
-216.621387
-226.209056
-235.497110
-245.684008
-254.372832
-263.361272
-271.450867
-277.742775
-284.633911
-293.023121
-299.914258
-304.108863
-305.606936
-308.003854
-309.801541
-310.700385
-308.902697
-308.603083
-308.003854
-307.105010
-305.307322
-305.307322
-302.610790
-299.315029
-296.019268
-289.727360
-283.735067
-276.244701
-269.353565
-258.867052
-248.680154
-240.290944
-228.905588
-217.819846
-203.138728
-191.453757
-174.974952
-160.293834
-146.811175
-130.931599
-114.752408
-96.176301
-80.596339
-63.518304
-48.537572
-33.556840
-16.478805
-1.498073
13.432864
28.325822
42.050704
56.067606
67.748357
80.889202
93.153991
105.418779
117.391549
129.364319
142.797183
155.353991
167.910798
177.255399
191.272300
207.041315
218.138028
228.358685
236.827230
247.047887
256.976526
264.861033
272.161502
278.585915
286.178404
294.938967
298.735211
303.699531
305.451643
306.619718
308.371831
308.079812
309.539906
309.831925
306.619718
306.619718
304.575587
302.823474
301.947418
296.983099
293.770892
287.638498
282.966197
275.957746
268.365258
259.020657
252.304225
240.623474
230.110798
218.722066
206.749296
193.024413
178.715493
164.990610
149.513615
136.372770
119.435681
102.206573
86.145540
71.252582
56.359624
41.466667
25.113615
8.760563
-5.692678
-19.175337
-34.156069
-47.039499
-62.919075
-76.102119
-87.787091
-100.970135
-112.355491
-124.939306
-139.320809
-152.503854
-163.289981
-174.076108
-189.955684
-205.835260
-218.119461
-226.808285
-236.096339
-246.283237
-255.571291
-263.960501
-272.649326
-277.443160
-286.431599
-291.824663
-298.116570
-304.108863
-305.307322
-306.805395
-307.404624
-308.003854
-309.202312
-307.404624
-308.603083
-307.704239
-305.007707
-305.606936
-301.112717
-297.517341
-293.322736
-287.929672
-281.637765
-274.746628
-267.256262
-258.567437
-248.680154
-238.493256
-228.306358
-215.422929
-203.737958
-189.056840
-174.974952
-159.694605
-145.912331
-130.032755
-115.052023
-95.277457
-79.697495
-64.417148
-47.938343
-31.759152
-14.980732
-1.797688
13.140845
28.909859
42.634742
55.775587
68.332394
81.473239
94.030047
105.710798
116.515493
129.656338
142.505164
155.938028
167.618779
176.963380
191.856338
206.165258
218.138028
228.358685
237.119249
247.631925
257.852582
267.197183
272.745540
281.214085
286.762441
295.230986
300.779343
304.283568
306.911737
307.495775
308.663850
309.831925
308.955869
307.495775
307.787793
306.327700
304.575587
303.991549
302.239437
299.319249
293.770892
288.806573
283.842254
275.957746
266.905164
258.436620
249.676056
240.623474
228.942723
217.846009
205.581221
191.272300
178.131455
162.362441
148.053521
134.912676
116.807512
100.746479
84.977465
69.500469
54.315493
39.130516
23.069484
7.300469
-6.591522
-21.272640
-35.054913
-50.035645
-64.117534
-76.701349
-89.884393
-102.168593
-113.553950
-125.538536
-139.620424
-153.702312
-164.488439
-175.873796
-189.955684
-207.033719
-218.419075
-228.605973
-236.995183
-246.882466
-257.668593
-264.260116
-272.948940
-279.240848
-287.330443
-293.921965
-297.517341
-303.509634
-305.307322
-305.307322
-308.003854
-309.202312
-307.704239
-308.603083
-308.303468
-305.307322
-304.408478
-302.610790
-299.015414
-298.116570
-293.023121
-286.731214
-279.540462
-273.248555
-266.357418
-257.069364
-247.781310
-236.695568
-225.909441
-214.224470
-200.442197
-186.959538
-172.877649
-156.398844
-142.916185
-127.935453
-109.658960
-92.281310
-76.401734
-61.720617
-44.942197
-29.661850
-11.984586
1.168075
16.937089
30.953991
44.970892
58.403756
70.668545
83.809390
96.366197
109.507042
122.355869
134.328638
145.717371
159.150235
169.662911
180.467606
195.068545
210.545540
220.182160
230.694836
239.163380
249.384038
259.896714
268.073239
274.497653
282.090141
288.514554
295.230986
301.071362
305.451643
305.743662
308.955869
308.371831
308.663850
308.371831
308.371831
307.495775
307.787793
304.867606
303.407512
301.363380
298.735211
293.770892
288.222535
282.966197
275.373709
266.613146
257.852582
249.092019
237.995305
228.942723
216.969953
203.537089
190.396244
175.503286
160.318310
147.177465
131.700469
115.931455
97.242254
82.057277
67.748357
52.271362
38.254460
20.733333
4.964319
-9.288054
-24.568401
-38.949904
-51.533719
-65.315992
-77.300578
-91.082852
-103.367052
-115.651252
-128.834297
-141.418112
-156.099229
-166.286127
-177.371869
-193.251445
-208.831407
-219.617534
-229.205202
-238.193642
-249.279383
-257.668593
-267.855491
-274.746628
-280.139692
-287.330443
-295.420039
-299.614644
-304.708092
-307.404624
-308.902697
-306.505780
-309.202312
-308.003854
-307.404624
-308.003854
-305.606936
-302.610790
-302.610790
-300.813102
-296.318882
-291.824663
-286.131985
-278.941233
-271.151252
-263.660886
-255.271676
-247.182081
-237.294798
-224.710983
-212.426782
-199.543353
-185.461464
-170.480732
-155.799615
-140.219653
-127.935453
-108.460501
-90.783237
-75.502890
-59.623314
-45.241811
-28.763006
-13.482659
2.628169
17.813146
32.998122
43.802817
58.695775
70.960563
84.977465
98.118310
108.338967
120.603756
132.868545
145.133333
157.982160
169.370892
180.759624
196.820657
210.837559
221.642254
229.818779
240.331455
251.136150
260.772770
267.197183
275.373709
282.966197
290.266667
296.691080
301.071362
303.991549
305.159624
307.495775
308.371831
307.787793
307.787793
309.247887
308.079812
307.495775
304.575587
302.823474
300.779343
297.567136
293.186854
286.470423
280.630047
274.205634
266.321127
256.100469
247.339906
236.827230
226.314554
215.509859
202.076995
187.476056
174.627230
158.274178
145.133333
130.824413
113.303286
95.782160
80.889202
64.244131
51.395305
35.626291
18.397183
3.504225
-10.486513
-24.268786
-40.148362
-54.529865
-66.514451
-79.997110
-92.880539
-104.865125
-118.048170
-129.133911
-143.215800
-156.698459
-165.986513
-178.570328
-194.150289
-209.430636
-220.216763
-229.504817
-239.991329
-250.477842
-257.069364
-267.256262
-273.548170
-280.439306
-287.630058
-294.221580
-300.513487
-303.210019
-305.906551
-307.105010
-308.902697
-308.603083
-307.704239
-307.704239
-307.404624
-305.606936
-303.509634
-302.311175
-299.015414
-297.217726
-290.626204
-285.532755
-278.941233
-271.750482
-261.863198
-252.575145
-244.185934
-233.699422
-225.010597
-210.928709
-198.045279
-184.263006
-168.383430
-154.001927
-137.822736
-123.441233
-105.763969
-89.884393
-72.506744
-57.825626
-41.646435
-25.766859
-10.486513
4.380282
20.149296
34.458216
48.475117
61.323944
73.296714
87.313615
99.870423
111.551174
122.647887
136.080751
148.929577
160.902347
171.999061
183.679812
197.696714
212.881690
222.518310
232.154930
242.083568
252.012207
262.816901
269.825352
276.833803
282.382160
290.850704
296.983099
300.779343
304.867606
306.327700
307.495775
309.247887
309.539906
308.371831
309.831925
308.955869
306.619718
305.159624
303.991549
299.903286
297.275117
291.726761
286.178404
280.338028
273.037559
264.861033
256.392488
246.463850
234.783099
224.562441
214.341784
199.740845
185.431925
170.830986
156.230047
142.505164
127.028169
110.091080
93.446009
77.969014
61.615962
48.475117
32.414085
16.645070
2.044131
-13.183044
-26.965318
-43.444123
-56.027938
-68.911368
-82.394027
-94.977842
-106.962428
-119.546243
-132.729287
-146.811175
-159.394990
-170.480732
-180.667630
-198.644509
-211.827553
-222.913295
-231.002890
-242.687861
-251.975915
-261.263969
-268.155106
-274.447013
-283.135838
-289.128131
-295.719653
-301.412331
-305.307322
-305.007707
-305.906551
-307.105010
-306.805395
-308.603083
-307.704239
-308.303468
-305.906551
-302.011561
-303.210019
-300.213873
-294.820809
-291.225434
-285.233141
-278.342004
-270.252408
-261.263969
-252.575145
-242.987476
-232.500963
-222.014451
-209.131021
-195.947977
-183.064547
-167.784200
-151.005780
-137.822736
-120.744701
-104.265896
-88.685934
-71.907514
-57.226397
-41.047206
-23.969171
-9.288054
6.132394
20.149296
35.334272
47.599061
62.492019
76.216901
87.897653
100.746479
110.967136
123.815962
136.372770
148.345540
162.070423
170.246948
184.847887
199.740845
212.297653
223.102347
232.154930
242.375587
253.472300
262.232864
268.949296
277.709859
283.550235
290.558685
298.151174
301.363380
304.575587
305.451643
307.495775
309.247887
308.663850
310.123944
309.831925
307.787793
306.327700
304.283568
302.239437
299.319249
296.691080
291.434742
285.010329
278.293897
271.869484
263.108920
254.932394
244.711737
233.615023
223.978404
212.005634
198.864789
184.555869
169.078873
154.185915
139.292958
124.984038
106.586854
90.233803
75.924883
60.155869
45.554930
30.369953
13.724883
-0.000000
-15.879576
-30.261079
-42.545279
-56.926782
-71.308285
-84.191715
-95.876686
-107.861272
-121.643545
-135.126204
-148.309249
-159.994220
-171.079961
-183.064547
-199.543353
-213.625241
-224.710983
-233.399807
-242.388247
-252.275530
-263.660886
-269.053950
-274.447013
-283.735067
-290.326590
-296.618497
-301.412331
-303.809249
-305.606936
-307.404624
-307.404624
-308.003854
-309.501927
-308.303468
-307.404624
-307.404624
-305.307322
-302.311175
-298.116570
-293.921965
-288.828516
-283.435453
-278.042389
-269.952794
-260.664740
-252.275530
-242.687861
-231.901734
-221.415222
-208.531792
-194.150289
-180.068401
-165.387283
-149.507707
-136.923892
-119.845857
-102.767823
-85.989403
-69.210983
-54.230250
-38.949904
-23.969171
-6.291908
8.176526
22.485446
37.086385
50.227230
64.536150
76.800939
90.817840
101.622535
112.135211
124.692019
137.248826
150.097653
162.362441
172.875117
185.139906
202.369014
214.633803
225.438498
233.323005
242.667606
253.180282
261.940845
270.701408
277.125822
283.842254
292.894836
297.859155
303.407512
305.451643
306.911737
308.663850
308.955869
307.787793
309.539906
308.955869
307.203756
305.451643
303.991549
302.239437
300.487324
296.691080
290.266667
286.470423
278.877934
270.409390
261.356808
252.888263
243.835681
234.491080
221.642254
210.253521
196.528638
182.803756
167.326761
153.601878
140.169014
123.815962
106.294836
89.941784
74.464789
59.571831
45.554930
29.493897
12.556808
-1.498073
-16.478805
-31.459538
-44.942197
-59.323699
-71.607900
-84.790944
-97.674374
-109.658960
-121.343931
-136.025048
-148.309249
-159.994220
-171.978805
-184.862235
-200.442197
-214.224470
-225.909441
-233.100193
-243.586705
-252.575145
-262.462428
-269.653179
-275.645472
-283.435453
-290.626204
-296.918112
-300.813102
-304.108863
-305.606936
-307.704239
-306.805395
-308.003854
-308.003854
-307.704239
-307.105010
-305.606936
-302.910405
-300.213873
-299.015414
-294.221580
-288.229287
-281.338150
-276.544316
-266.956647
-259.166667
-250.178227
-239.991329
-231.002890
-219.018304
-207.333333
-192.052987
-178.869942
-162.690751
-146.511561
-133.927746
-117.448940
-99.472062
-82.394027
-66.814066
-52.132948
-35.654143
-19.774566
-4.494220
10.220657
24.237559
39.130516
52.563380
65.120188
79.137089
91.401878
103.082629
115.347418
127.612207
141.337089
153.309859
164.990610
176.087324
188.352113
203.537089
217.261972
226.606573
236.243192
245.587793
255.808451
264.569014
270.701408
279.753991
284.718310
293.770892
300.195305
305.743662
305.743662
308.371831
310.123944
308.955869
310.415962
309.539906
308.663850
307.787793
306.327700
304.283568
301.363380
299.027230
296.107042
289.098592
283.550235
277.709859
269.825352
261.064789
252.012207
242.667606
231.862911
220.766197
208.501408
194.776526
180.175587
164.990610
150.681690
137.540845
120.603756
103.666667
86.145540
71.252582
56.067606
41.466667
26.281690
9.344601
-4.494220
-18.276493
-34.156069
-47.339114
-62.319846
-75.203276
-88.386320
-100.970135
-112.055877
-124.939306
-138.721580
-151.904624
-163.889210
-174.076108
-188.157996
-203.737958
-216.321773
-228.006744
-234.897881
-244.785164
-254.073218
-262.462428
-272.349711
-276.843931
-285.233141
-291.824663
-298.416185
-302.011561
-305.906551
-306.805395
-307.404624
-309.202312
-308.303468
-307.704239
-308.003854
-306.206166
-305.307322
-303.210019
-302.011561
-297.816956
-293.322736
-287.929672
-281.637765
-275.945087
-268.155106
-258.567437
-249.878613
-239.392100
-229.205202
-217.520231
-203.737958
-191.154143
-176.473025
-160.593449
-147.110790
-131.830443
-115.950867
-96.176301
-80.596339
-65.615607
-50.035645
-33.856455
-17.078035
-3.595376
12.264789
27.449765
40.590610
53.731455
66.872300
80.889202
92.569953
106.002817
116.807512
129.364319
142.797183
154.769953
166.742723
175.795305
191.272300
206.165258
216.969953
228.650704
236.535211
247.339906
257.560563
265.445070
273.037559
280.630047
286.178404
295.815023
301.071362
304.575587
307.203756
308.079812
307.787793
309.247887
309.247887
308.663850
308.663850
307.203756
304.867606
302.823474
302.823474
299.319249
295.523005
290.850704
284.134272
277.709859
267.781221
260.188732
251.428169
241.791549
230.694836
218.722066
207.041315
193.316432
178.423474
164.114554
149.513615
136.664789
120.603756
101.914554
86.437559
70.084507
55.191549
40.298592
24.529577
8.468545
-5.692678
-20.673410
-34.455684
-49.736031
-63.218690
-75.802505
-89.285164
-101.868979
-112.055877
-126.137765
-139.920039
-151.904624
-163.589595
-175.574181
-189.656069
-206.134875
-218.119461
-226.508671
-235.497110
-246.582852
-255.571291
-263.361272
-272.349711
-276.843931
-285.832370
-292.124277
-297.816956
-302.910405
-304.408478
-306.206166
-308.902697
-306.805395
-306.505780
-308.902697
-306.805395
-307.404624
-304.708092
-302.610790
-299.914258
-296.318882
-293.023121
-285.233141
-279.840077
-272.649326
-266.357418
-258.267823
-247.781310
-237.294798
-226.808285
-214.823699
-202.539499
-189.656069
-174.974952
-159.394990
-146.511561
-130.032755
-113.553950
-95.277457
-79.697495
-63.518304
-48.237958
-32.657996
-16.478805
-2.097303
12.556808
27.157746
41.174648
54.607512
68.040376
80.013146
94.322066
105.418779
116.223474
128.780282
142.213146
155.061972
166.450704
177.547418
191.856338
205.873239
219.890141
228.066667
237.995305
248.800000
257.852582
266.905164
272.745540
280.922066
287.346479
295.230986
301.363380
303.991549
305.159624
308.079812
309.539906
308.371831
308.955869
309.539906
308.079812
307.203756
304.575587
302.531455
301.363380
299.319249
295.230986
289.682629
282.382160
275.373709
267.197183
259.020657
249.384038
239.747418
229.234742
217.553991
206.749296
191.564319
177.547418
162.362441
148.637559
134.036620
117.099531
100.162441
82.933333
69.792488
54.023474
37.962441
23.653521
6.132394
-8.688825
-21.871869
-35.654143
-50.634875
-63.817919
-77.899807
-89.584778
-101.868979
-113.853565
-126.437380
-140.219653
-154.601156
-165.087669
-176.473025
-190.554913
-208.531792
-218.419075
-227.107900
-235.796724
-246.283237
-256.769750
-266.057803
-272.050096
-279.240848
-288.229287
-293.921965
-298.416185
-302.910405
-305.007707
-305.906551
-307.404624
-307.704239
-309.202312
-308.303468
-307.704239
-305.307322
-305.606936
-300.813102
-300.813102
-296.318882
-289.727360
-286.131985
-279.540462
-273.248555
-265.458574
-255.870906
-246.582852
-235.197495
-225.909441
-212.726397
-199.842967
-187.259152
-173.476879
-157.297688
-142.616570
-128.834297
-110.557803
-93.779383
-78.199422
-61.421002
-47.638728
-30.560694
-13.482659
2.044131
15.476995
30.077934
44.094836
57.235681
70.084507
82.933333
96.074178
107.462911
118.851643
131.116432
143.965258
157.690141
168.786854
179.007512
194.484507
208.209390
220.182160
228.942723
238.871362
249.968075
259.312676
268.365258
275.081690
281.214085
288.806573
296.983099
301.071362
304.283568
306.911737
308.371831
309.247887
309.247887
308.663850
310.123944
308.079812
307.203756
305.743662
302.531455
300.779343
298.443192
294.646948
288.514554
281.214085
275.373709
266.613146
256.976526
249.384038
238.871362
228.066667
216.969953
203.245070
188.644131
173.459155
159.150235
145.425352
130.824413
113.011268
96.950235
80.013146
65.120188
50.519249
34.750235
18.981221
3.504225
-11.085742
-24.868015
-39.249518
-53.031792
-65.315992
-80.895954
-94.078998
-105.763969
-117.149326
-130.931599
-143.215800
-156.998073
-168.683044
-179.469171
-194.749518
-209.730250
-220.516378
-229.804432
-238.193642
-248.080925
-258.567437
-266.657033
-273.248555
-281.038536
-286.731214
-294.820809
-300.813102
-303.509634
-306.505780
-306.505780
-307.105010
-308.003854
-307.105010
-308.303468
-308.902697
-306.805395
-305.606936
-302.610790
-299.614644
-296.918112
-291.525048
-286.731214
-279.540462
-272.948940
-263.960501
-254.073218
-245.983622
-235.497110
-224.411368
-212.426782
-199.243738
-185.161850
-170.480732
-155.200385
-141.118497
-125.538536
-109.359345
-91.082852
-75.502890
-57.825626
-44.342967
-29.062620
-11.684971
3.504225
17.229108
32.414085
46.138967
60.155869
72.128638
84.977465
98.118310
109.507042
120.311737
135.204695
146.885446
159.150235
169.370892
181.927700
197.404695
210.545540
222.810329
231.278873
240.623474
251.720188
260.188732
268.365258
275.665728
281.798122
289.098592
296.399061
301.947418
305.743662
306.327700
306.327700
308.955869
309.831925
309.831925
309.831925
308.955869
306.035681
304.867606
303.699531
299.903286
297.567136
291.726761
286.470423
280.338028
273.329577
265.737089
256.684507
247.923944
237.995305
225.438498
214.341784
202.076995
186.892019
172.583099
157.982160
143.381221
130.532394
111.843192
94.614085
79.721127
63.368075
50.227230
32.998122
17.521127
3.504225
-12.583815
-28.163776
-41.646435
-55.428709
-66.814066
-81.495183
-93.180154
-106.363198
-118.347784
-131.830443
-145.612717
-158.496146
-169.282274
-179.768786
-196.247592
-211.527938
