-144.266160
10.754206
-31.040875
-88.688213
-69.176806
-56.760456
-39.909696
-24.832700
-8.277567
6.103738
21.508411
34.297196
48.248598
63.071963
75.570093
89.521495
100.857009
113.645794
126.143925
139.223364
152.884112
163.057009
176.136449
192.703738
206.945794
217.990654
227.000935
237.173832
247.346729
256.647664
262.170093
270.599065
273.505607
284.259813
291.816822
298.792523
302.280374
299.664486
302.861682
301.408411
304.896262
303.152336
300.827103
305.186916
297.339252
297.920561
296.176636
294.723364
290.654206
283.678505
278.737383
272.052336
262.170093
253.450467
244.149533
235.720561
227.291589
210.142991
198.226168
186.309346
170.323364
156.081308
142.420561
126.725234
112.192523
93.590654
75.570093
60.165421
40.691589
29.356075
14.532710
-1.773764
-13.007605
-28.084601
-44.048479
-54.691065
-67.994297
-83.662548
-92.235741
-108.199620
-116.772814
-130.667300
-141.309886
-157.273764
-171.463878
-174.420152
-187.427757
-207.234791
-216.103612
-226.154943
-232.954373
-248.918251
-254.239544
-264.882129
-268.429658
-274.342205
-285.280418
-290.897338
-298.879278
-300.357414
-307.156844
-308.634981
-311.000000
-308.339354
-310.113118
-309.226236
-304.791825
-309.817490
-304.791825
-305.678707
-303.018061
-299.174905
-292.671103
-291.488593
-285.280418
-276.115970
-271.385932
-263.995247
-254.239544
-243.892586
-233.841255
-223.198669
-212.556084
-194.522814
-181.515209
-169.394487
-152.543726
-142.492395
-123.276616
-109.677757
-89.575095
-77.454373
-59.125475
-46.709125
-28.380228
-14.781369
2.325234
14.532710
29.065421
39.819626
57.258879
70.338318
83.708411
92.718692
106.088785
119.168224
133.410280
145.617757
159.569159
169.160748
180.496262
196.191589
211.886916
224.094393
232.814019
245.021495
250.253271
259.263551
269.727103
275.830841
281.353271
290.072897
294.432710
300.536449
301.989720
303.733645
304.314953
309.546729
307.221495
305.768224
307.802804
305.186916
301.989720
302.861682
299.373832
296.176636
292.979439
286.003738
280.771963
275.249533
265.076636
257.228972
245.893458
238.045794
226.419626
215.084112
203.457944
189.506542
174.683178
159.569159
145.036449
130.503738
114.227103
95.334579
79.929907
65.106542
48.539252
33.715888
16.857944
1.162617
-14.190114
-26.902091
-41.092205
-55.282319
-68.585551
-82.480038
-92.826996
-105.243346
-117.364068
-128.893536
-142.196768
-154.317490
-166.142586
-176.489544
-190.384030
-204.278517
-216.990494
-226.746198
-234.432510
-244.188213
-253.057034
-263.403992
-269.316540
-275.229087
-284.097909
-291.192966
-296.514259
-301.835551
-303.904943
-306.565589
-306.565589
-308.339354
-308.930608
-308.043726
-306.861217
-307.452471
-303.904943
-303.313688
-302.131179
-298.288023
-293.853612
-287.054183
-282.915399
-274.933460
-268.429658
-259.265209
-251.578897
-242.118821
-232.363118
-219.355513
-208.712928
-195.114068
-182.402091
-166.438213
-151.656844
-139.831749
-122.685361
-106.130228
-89.575095
-73.906844
-60.307985
-44.048479
-27.493346
-12.120722
2.906542
17.439252
30.809346
45.051402
58.421495
71.500935
85.161682
97.078505
108.414019
119.168224
133.700935
147.361682
159.569159
170.323364
182.821495
200.551402
212.468224
223.513084
231.942056
242.114953
252.287850
261.879439
268.564486
276.121495
284.259813
290.072897
295.885981
301.408411
304.314953
303.152336
307.221495
306.640187
306.349533
306.930841
307.802804
305.186916
302.280374
300.245794
299.664486
297.048598
292.398131
288.038318
281.353271
274.377570
267.692523
256.938318
247.637383
238.627103
227.872897
217.990654
203.457944
190.378505
173.520561
158.987850
145.327103
129.922430
114.227103
98.822430
80.220561
64.815888
49.992523
36.331776
19.183178
3.487850
-13.007605
-26.606464
-40.796578
-53.804183
-66.516160
-81.297529
-93.418251
-106.425856
-118.546578
-129.780418
-141.605513
-154.908745
-167.916350
-177.080798
-189.792776
-204.278517
-217.286122
-228.519962
-233.841255
-244.188213
-254.239544
-262.517110
-269.907795
-275.820342
-283.802281
-291.192966
-296.218631
-301.244297
-304.791825
-305.974335
-307.156844
-308.930608
-308.043726
-305.974335
-307.156844
-306.269962
-305.678707
-304.200570
-301.835551
-297.696768
-292.375475
-288.236692
-282.028517
-276.707224
-266.951521
-258.378327
-250.396388
-240.345057
-229.702471
-219.059886
-206.052281
-194.522814
-180.037072
-166.438213
-151.065589
-138.057985
-121.798479
-103.765209
-87.210076
-71.837452
-55.577947
-41.683460
-25.719582
-9.164449
4.941121
19.473832
34.297196
48.248598
59.874766
72.954206
86.324299
97.950467
110.157944
121.784112
136.026168
147.071028
162.185047
171.485981
186.309346
201.714019
215.374766
224.385047
232.814019
243.858879
253.741121
262.170093
269.727103
275.540187
283.678505
289.782243
296.757944
302.861682
303.733645
305.186916
306.349533
306.640187
307.221495
306.349533
307.221495
305.768224
304.314953
301.989720
299.664486
296.176636
291.816822
286.003738
279.900000
275.540187
267.401869
257.810280
249.381308
238.336449
228.744860
216.828037
204.329907
190.087850
177.008411
159.859813
148.233645
132.247664
116.842991
98.531776
82.255140
65.978505
52.317757
35.750467
20.636449
4.941121
-9.164449
-23.945817
-37.840304
-51.734791
-65.333650
-78.932510
-91.940114
-103.173954
-114.112167
-125.937262
-140.127376
-152.839354
-165.255703
-175.602662
-186.540875
-203.982890
-215.216730
-226.746198
-233.250000
-243.892586
-253.648289
-262.812738
-269.907795
-277.002852
-283.506654
-291.784221
-296.809886
-301.244297
-304.791825
-304.791825
-306.565589
-307.452471
-307.452471
-308.043726
-308.634981
-304.496198
-303.609316
-301.244297
-299.470532
-297.696768
-292.671103
-286.462928
-281.141635
-275.229087
-266.951521
-258.082700
-249.213878
-239.753802
-229.406844
-219.059886
-207.234791
-193.931559
-177.967681
-164.960076
-151.065589
-135.988593
-121.207224
-102.878327
-87.210076
-70.950570
-55.282319
-40.796578
-25.128327
-8.868821
5.813084
18.892523
35.169159
47.667290
60.456075
74.988785
86.614953
98.822430
110.157944
122.365421
135.154206
148.524299
161.022430
171.485981
185.146729
200.842056
212.468224
224.966355
232.523364
243.568224
254.031776
262.460748
269.145794
275.249533
284.259813
291.235514
295.885981
300.536449
302.861682
306.640187
307.512150
307.512150
307.512150
307.512150
305.186916
306.930841
304.605607
301.408411
299.664486
295.304673
293.270093
287.747664
281.353271
275.249533
266.239252
258.972897
249.671963
239.789720
229.616822
217.409346
204.911215
190.959813
177.880374
161.022430
146.199065
132.828972
117.424299
99.403738
82.836449
66.559813
52.027103
36.041121
21.799065
5.813084
-9.164449
-22.763308
-37.840304
-50.256654
-64.446768
-78.932510
-90.757605
-102.287072
-114.703422
-126.232890
-140.127376
-152.543726
-165.551331
-173.828897
-189.201521
-204.574144
-216.399240
-226.154943
-233.545627
-244.779468
-253.057034
-262.221483
-268.725285
-275.820342
-283.211027
-290.306084
-297.401141
-301.539924
-303.904943
-304.200570
-305.678707
-307.452471
-307.748099
-306.861217
-305.974335
-304.200570
-303.904943
-302.722433
-299.470532
-295.036122
-292.079848
-286.167300
-280.550380
-274.342205
-265.473384
-255.717681
-248.031369
-238.275665
-228.224335
-216.103612
-204.278517
-190.679658
-177.080798
-162.003802
-148.996198
-135.101711
-118.250951
-99.035171
-84.845057
-68.585551
-53.804183
-38.135932
-22.172053
-5.321293
7.557009
23.252336
37.494393
48.829907
63.071963
77.023364
88.358879
101.438318
112.773832
124.981308
138.642056
151.721495
163.057009
173.811215
186.890654
203.457944
215.956075
226.128972
234.557944
245.893458
255.485047
263.332710
270.017757
278.737383
285.131776
291.526168
297.629907
301.989720
304.314953
306.930841
306.930841
307.512150
306.640187
306.930841
307.221495
306.058879
304.605607
302.571028
299.664486
298.211215
292.398131
287.747664
281.062617
274.086916
266.239252
258.972897
248.800000
239.499065
228.163551
217.409346
204.329907
191.250467
177.299065
160.441121
146.199065
132.538318
115.680374
98.241121
81.673832
66.559813
51.736449
36.041121
20.345794
4.650467
-9.460076
-23.945817
-39.318441
-52.326046
-66.811787
-79.523764
-93.418251
-104.060837
-116.772814
-127.711027
-141.309886
-155.500000
-166.438213
-176.489544
-190.679658
-205.461027
-216.399240
-226.450570
-234.432510
-245.666350
-254.239544
-261.630228
-268.725285
-277.002852
-284.097909
-290.306084
-296.514259
-302.131179
-303.904943
-306.565589
-308.043726
-307.748099
-305.678707
-306.861217
-307.156844
-305.974335
-303.313688
-301.244297
-300.357414
-295.923004
-291.192966
-286.758555
-282.324144
-271.681559
-265.177757
-256.308935
-248.918251
-238.571293
-227.928707
-217.286122
-204.574144
-189.792776
-176.489544
-162.003802
-146.926806
-133.919202
-116.772814
-98.739544
-81.888783
-67.403042
-51.143536
-37.840304
-20.398289
-5.025665
9.300935
24.414953
37.203738
49.992523
65.687850
77.895327
91.556075
103.472897
115.099065
127.887850
140.095327
152.884112
165.382243
174.973832
188.343925
204.620561
217.409346
227.000935
234.848598
245.312150
254.613084
263.332710
271.761682
277.574766
286.003738
293.851402
299.955140
303.442991
304.896262
306.640187
307.221495
308.384112
307.802804
307.802804
308.093458
305.477570
304.314953
301.408411
301.117757
297.048598
293.270093
288.038318
281.934579
275.540187
266.239252
257.810280
248.800000
238.627103
229.326168
217.409346
205.201869
191.541121
176.717757
162.475701
146.489720
134.282243
115.971028
98.822430
83.127103
66.850467
52.608411
36.913084
21.217757
4.650467
-8.868821
-23.058935
-37.544677
-50.552281
-64.742395
-77.750000
-90.461977
-101.991445
-114.703422
-127.119772
-139.831749
-152.839354
-164.664449
-174.420152
-188.610266
-204.869772
-216.103612
-225.859316
-234.432510
-245.370722
-253.352662
-262.517110
-267.542776
-275.524715
-284.984791
-290.010456
-296.809886
-300.357414
-302.426806
-306.861217
-305.678707
-305.974335
-305.678707
-307.748099
-305.383080
-305.087452
-302.131179
-301.835551
-298.879278
-293.853612
-290.897338
-284.393536
-279.959125
-272.272814
-263.108365
-255.422053
-246.848859
-237.093156
-226.746198
-215.807985
-203.687262
-189.201521
-174.715779
-159.047529
-146.039924
-132.441065
-114.999049
-98.443916
-81.297529
-65.333650
-50.847909
-35.770913
-19.215779
-3.251901
11.044860
24.705607
39.238318
53.189720
65.397196
79.057944
91.556075
103.763551
115.099065
127.015888
139.514019
153.174766
164.219626
174.973832
189.797196
206.364486
218.281308
227.000935
236.592523
247.056075
256.357009
263.623364
272.052336
279.609346
286.585047
293.560748
298.501869
303.442991
306.640187
308.384112
307.221495
306.640187
308.965421
309.546729
308.384112
307.221495
306.058879
303.442991
300.827103
297.920561
292.688785
289.782243
281.062617
274.668224
267.111215
258.100935
248.800000
239.208411
227.872897
217.409346
204.039252
190.669159
174.973832
159.278505
145.617757
131.666355
115.389720
97.659813
81.383178
65.687850
51.155140
34.878505
19.764486
3.487850
-10.051331
-25.128327
-38.727186
-52.621673
-66.811787
-80.410646
-93.122624
-104.947719
-117.659696
-128.302281
-142.492395
-155.500000
-166.142586
-177.376426
-191.566540
-206.052281
-218.173004
-227.928707
-235.910646
-246.257605
-254.239544
-262.221483
-268.725285
-277.002852
-284.097909
-292.375475
-298.288023
-301.835551
-304.791825
-306.861217
-306.269962
-305.974335
-306.269962
-305.383080
-305.974335
-306.269962
-303.313688
-301.244297
-297.401141
-295.627376
-291.488593
-285.871673
-279.072243
-274.046578
-263.699620
-253.943916
-246.553232
-235.319392
-226.154943
-214.921103
-201.026616
-188.905894
-172.942015
-158.160646
-144.561787
-130.667300
-114.407795
-95.487643
-81.593156
-65.038023
-49.665399
-34.588403
-18.624525
-2.365019
11.335514
26.449533
39.528972
53.480374
66.269159
79.639252
91.846729
104.926168
115.680374
128.469159
142.420561
154.628037
165.672897
177.008411
191.541121
206.945794
218.281308
228.454206
237.464486
247.346729
257.519626
264.204673
272.052336
279.900000
286.294393
293.270093
298.792523
303.733645
306.930841
307.512150
306.349533
308.384112
308.965421
308.674766
309.256075
307.221495
304.024299
301.989720
300.536449
298.211215
292.398131
287.166355
280.481308
274.958879
266.239252
257.810280
249.090654
240.080374
228.454206
216.246729
203.457944
190.959813
176.427103
160.731776
146.780374
133.119626
116.261682
98.531776
81.673832
68.885047
51.445794
36.041121
19.473832
4.941121
-9.755703
-24.832700
-38.431559
-50.847909
-65.629278
-79.228137
-91.644487
-104.060837
-115.294677
-128.597909
-140.423004
-153.430608
-164.960076
-174.715779
-190.975285
-206.052281
-216.990494
-226.154943
-235.615019
-246.257605
-253.943916
-262.221483
-269.907795
-276.707224
-284.393536
-290.601711
-297.992395
-301.539924
-304.496198
-304.496198
-307.156844
-305.087452
-305.383080
-305.974335
-305.678707
-304.496198
-303.904943
-300.948669
-296.809886
-294.740494
-288.827947
-284.689163
-278.776616
-272.864068
-263.699620
-254.830798
-246.257605
-235.910646
-226.154943
-214.034221
-201.617871
-185.949620
-172.942015
-157.569392
-145.744297
-128.893536
-112.042776
-96.670152
-80.115019
-65.629278
-48.187262
-34.292776
-18.033270
-2.660646
13.079439
25.577570
40.110280
53.771028
67.141121
80.511215
93.300000
105.798131
116.842991
127.887850
141.548598
153.174766
165.091589
175.845794
189.797196
206.364486
217.118692
227.872897
236.011215
245.893458
256.357009
266.239252
272.924299
281.062617
286.585047
293.851402
299.664486
303.442991
305.477570
307.512150
307.802804
308.674766
309.546729
307.802804
308.384112
305.186916
304.314953
302.861682
299.664486
295.885981
293.270093
286.875701
281.934579
274.086916
264.495327
256.938318
248.218692
237.755140
226.710280
215.956075
204.039252
188.925234
174.392523
158.406542
146.489720
133.119626
115.099065
97.950467
81.092523
66.559813
52.027103
36.041121
20.055140
3.487850
-10.051331
-25.128327
-39.614068
-52.030418
-66.220532
-80.706274
-91.644487
-103.765209
-114.999049
-128.893536
-141.014259
-154.613118
-165.551331
-175.898289
-190.975285
-206.643536
-218.468631
-227.633080
-235.319392
-245.961977
-255.422053
-264.290875
-269.316540
-278.185361
-285.576046
-291.784221
-297.105513
-302.722433
-304.200570
-305.087452
-305.974335
-306.269962
-307.156844
-305.974335
-305.383080
-304.200570
-301.835551
-299.766160
-299.766160
-294.149240
-290.306084
-283.506654
-278.185361
-270.499049
-262.517110
-253.943916
-245.370722
-235.023764
-224.381179
-214.034221
-199.844106
-187.723384
-172.350760
-158.456274
-143.674905
-128.597909
-112.042776
-93.713878
-77.454373
-62.081749
-47.596008
-32.223384
-15.076996
-0.591255
13.370093
28.484112
41.563551
54.933645
69.757009
82.545794
94.171963
106.960748
117.424299
130.503738
143.583178
155.790654
167.126168
177.008411
192.122430
208.108411
220.315888
229.035514
238.917757
248.218692
258.391589
265.948598
274.086916
279.900000
286.875701
295.304673
300.245794
304.024299
306.349533
306.058879
308.674766
309.546729
307.802804
309.837383
307.802804
307.221495
304.605607
302.280374
301.117757
296.757944
291.235514
286.585047
282.515888
273.796262
266.239252
257.228972
248.509346
238.336449
227.291589
215.665421
202.585981
188.634579
174.392523
159.278505
146.780374
130.503738
113.645794
97.078505
79.348598
65.687850
50.283178
35.750467
18.892523
3.487850
-11.529468
-25.719582
-38.727186
-53.804183
-65.924905
-80.706274
-92.826996
-105.538973
-116.772814
-130.667300
-142.196768
-155.795627
-165.846958
-178.263308
-191.862167
-207.826046
-219.355513
-228.519962
-236.501901
-246.553232
-254.239544
-264.586502
-270.794677
-278.185361
-286.462928
-291.488593
-296.809886
-302.131179
-303.904943
-306.565589
-306.269962
-304.791825
-306.565589
-307.156844
-305.974335
-304.791825
-303.609316
-300.061787
-297.105513
-295.331749
-290.306084
-283.506654
-277.594106
-270.499049
-261.925856
-252.170152
-243.596958
-233.250000
-223.494297
-211.964829
-199.252852
-186.245247
-170.872624
-156.978137
-143.379278
-128.006654
-112.042776
-93.418251
-78.045627
-62.673004
-47.891635
-30.153992
-15.668251
-0.591255
12.788785
27.612150
42.435514
54.642991
69.466355
82.255140
94.753271
106.379439
117.424299
131.085047
143.873832
155.790654
166.835514
177.299065
192.122430
207.817757
220.315888
230.198131
239.208411
248.800000
258.391589
265.367290
273.796262
280.481308
287.457009
296.467290
300.536449
304.896262
304.896262
306.640187
308.384112
311.000000
307.512150
308.674766
308.093458
305.186916
302.861682
302.861682
299.955140
297.339252
290.944860
287.457009
281.643925
272.924299
265.076636
256.938318
248.218692
237.755140
226.128972
215.956075
201.714019
187.471963
172.357944
159.569159
145.617757
129.922430
113.355140
96.206542
80.220561
66.269159
49.411215
34.878505
17.439252
3.197196
-11.825095
-25.719582
-40.205323
-53.804183
-67.403042
-79.228137
-93.418251
-104.060837
-118.546578
-130.667300
-142.788023
-155.795627
-166.733840
-177.967681
-192.749049
-207.530418
-217.581749
-227.337452
-236.501901
-247.735741
-256.604563
-263.995247
-271.090304
-278.185361
-282.619772
-292.671103
-297.992395
-300.948669
-304.791825
-306.565589
-305.383080
-305.678707
-308.339354
-307.156844
-306.269962
-303.904943
-302.131179
-300.653042
-297.696768
-292.079848
-290.306084
-284.097909
-278.185361
-270.499049
-261.630228
-252.465779
-243.596958
-234.432510
-223.789924
-211.669202
-201.322243
-186.245247
-170.872624
-155.795627
-143.379278
-128.597909
-109.973384
-92.826996
-77.454373
-60.603612
-47.300380
-30.449620
-15.076996
1.162617
15.404673
29.065421
42.726168
56.386916
68.885047
81.673832
95.043925
107.542056
118.005607
131.375701
143.292523
156.371963
168.288785
179.914953
195.028972
209.271028
220.897196
229.326168
238.336449
249.090654
259.844860
266.820561
273.796262
280.481308
288.619626
295.014019
300.536449
305.768224
307.512150
308.384112
307.221495
307.512150
308.093458
308.093458
307.512150
306.930841
304.314953
303.733645
299.373832
296.176636
291.526168
285.713084
280.481308
273.796262
265.076636
256.066355
247.637383
237.464486
225.838318
214.793458
201.423364
187.181308
173.229907
157.243925
143.873832
129.631776
113.064486
93.881308
78.476636
64.525234
49.120561
34.297196
16.567290
2.615888
-13.303232
-26.902091
-40.796578
-54.986692
-68.289924
-81.593156
-94.600760
-106.425856
-118.250951
-130.667300
-143.970532
-156.091255
-167.029468
-178.263308
-193.044677
-208.121673
-218.173004
-227.337452
-237.684411
-248.326996
-256.308935
-265.177757
-270.499049
-278.480989
-285.280418
-293.557985
-298.583650
-302.131179
-305.087452
-306.565589
-305.974335
-305.974335
-306.861217
-306.269962
-305.974335
-304.791825
-303.904943
-300.357414
-297.401141
-294.444867
-289.123574
-284.393536
-277.002852
-269.316540
-261.925856
-251.874525
-243.596958
-234.136882
-223.198669
-210.191065
-198.070342
-185.062738
-168.803232
-154.908745
-141.309886
-125.641635
-109.382129
-90.461977
-75.976236
-59.716730
-46.413498
-29.562738
-13.598859
2.906542
16.276636
31.100000
45.342056
57.258879
70.047664
85.742991
96.497196
108.123364
119.458879
132.828972
146.199065
158.406542
170.323364
179.624299
194.738318
210.433645
221.478505
231.651402
239.789720
249.962617
259.554206
265.948598
275.540187
281.353271
287.747664
296.467290
301.117757
303.733645
306.349533
307.512150
308.965421
309.837383
308.965421
309.546729
309.546729
306.640187
305.186916
302.861682
299.373832
297.048598
291.235514
288.328972
280.481308
274.377570
264.204673
256.357009
247.346729
237.755140
225.547664
214.793458
202.004673
187.471963
172.067290
156.662617
144.164486
128.469159
112.192523
94.753271
78.185981
63.943925
48.248598
32.262617
17.439252
1.162617
-13.598859
-27.493346
-41.979087
-54.986692
-67.403042
-81.001901
-94.009506
-105.834601
-118.250951
-130.667300
-143.674905
-156.978137
-167.916350
-178.558935
-194.227186
-208.121673
-219.355513
-229.111217
-237.980038
-248.326996
-256.013308
-265.177757
-271.090304
-278.776616
-286.167300
-293.557985
-299.174905
-302.426806
-305.087452
-305.678707
-305.678707
-306.269962
-305.974335
-305.383080
-305.974335
-304.496198
-302.426806
-300.948669
-296.809886
-293.557985
-289.419202
-281.437262
-276.115970
-270.203422
-262.812738
-252.761407
-244.188213
-234.728137
-222.903042
-210.782319
-196.000951
-183.288973
-169.394487
-156.091255
-141.014259
-125.346008
-108.495247
-90.461977
-75.976236
-60.012357
-44.639734
-29.858365
-13.598859
2.615888
17.148598
31.681308
44.470093
57.840187
71.500935
83.708411
95.625234
107.251402
119.168224
132.247664
145.617757
158.987850
167.707477
181.368224
195.610280
211.596262
221.769159
231.070093
239.208411
249.090654
259.263551
267.401869
274.377570
281.353271
288.038318
295.885981
300.245794
304.896262
305.768224
306.930841
307.802804
308.674766
308.674766
308.674766
308.093458
305.768224
305.186916
300.827103
297.920561
296.467290
290.944860
286.294393
279.028037
272.633645
262.751402
256.066355
245.893458
235.720561
224.094393
212.758879
200.842056
186.890654
172.648598
156.662617
143.292523
129.050467
111.611215
94.753271
79.057944
62.490654
50.864486
32.262617
18.020561
1.453271
-12.120722
-26.902091
-40.500951
-54.986692
-67.698669
-81.593156
-95.192015
-106.130228
-117.659696
-130.962928
-142.788023
-155.795627
-167.029468
-178.263308
-194.227186
-209.599810
-218.764259
-228.815589
-239.162548
-248.326996
-256.604563
-263.699620
-271.977186
-277.889734
-285.576046
-293.557985
-299.766160
-301.539924
-304.200570
-305.087452
-305.383080
-306.861217
-306.565589
-306.565589
-305.974335
-302.131179
-303.018061
-299.766160
-296.809886
-293.557985
-287.054183
-282.915399
-276.115970
-269.020913
-262.221483
-251.874525
-243.301331
-233.545627
-222.016160
-211.077947
-198.070342
-183.584601
-168.211977
-154.021863
-139.536122
-124.163498
-107.608365
-89.575095
-74.202471
-58.534221
-43.457224
-27.788973
-10.938213
2.906542
17.729907
31.681308
45.051402
59.874766
72.663551
84.580374
97.659813
109.576636
120.330841
134.863551
146.489720
158.697196
168.579439
181.368224
195.610280
211.886916
222.059813
230.488785
240.080374
249.962617
259.844860
269.727103
274.668224
283.387850
290.072897
296.467290
301.699065
306.349533
307.802804
307.221495
307.221495
308.674766
307.802804
308.965421
307.802804
306.349533
304.605607
302.280374
299.664486
295.014019
290.654206
284.550467
279.609346
272.924299
263.623364
255.485047
245.893458
235.429907
224.385047
212.468224
199.098131
184.274766
170.904673
154.628037
143.001869
127.015888
109.576636
92.137383
75.570093
62.200000
45.923364
31.390654
15.114019
-0.000000
-14.781369
-28.971483
-41.683460
-57.056084
-70.359316
-83.662548
-96.670152
-107.903992
-120.911597
-132.145437
-145.153042
-158.456274
-169.394487
-179.741445
-195.409696
-208.712928
-220.833650
-229.406844
-239.458175
-248.031369
-257.195817
-264.882129
-272.864068
-280.254753
-286.167300
-294.149240
-299.174905
-303.313688
-305.087452
-306.565589
-305.678707
-305.383080
-305.383080
-304.791825
-305.383080
-303.904943
-302.426806
-300.357414
-295.627376
-293.853612
-289.714829
-282.324144
-278.185361
-268.429658
-259.265209
-251.283270
-241.527567
-231.476236
-221.129278
-208.417300
-195.705323
-182.106464
-166.733840
-151.656844
-138.649240
-122.980989
-105.243346
-88.392586
-73.611217
-57.056084
-41.979087
-26.902091
-10.938213
5.813084
18.892523
33.425234
47.957944
59.874766
74.698131
86.614953
99.985047
110.448598
122.656075
135.444860
147.942991
161.313084
170.904673
181.949533
198.226168
212.177570
223.513084
231.070093
241.824299
251.706542
261.298131
268.564486
275.540187
282.225234
289.782243
296.757944
301.408411
305.768224
305.768224
307.512150
310.128037
308.384112
308.965421
309.546729
307.802804
306.349533
304.605607
302.280374
298.211215
296.757944
291.526168
284.259813
278.446729
271.471028
262.460748
254.031776
244.730841
235.139252
223.803738
212.758879
199.679439
185.437383
171.195327
154.337383
141.548598
127.306542
108.704673
91.556075
77.023364
61.037383
46.504673
29.937383
15.404673
-1.478137
-14.485741
-28.084601
-42.274715
-56.464829
-69.176806
-82.184411
-95.192015
-106.425856
-118.250951
-132.145437
-143.083650
-158.160646
-167.916350
-180.332700
-196.000951
-211.373574
-221.129278
-229.406844
-239.162548
-247.735741
-259.560837
-264.290875
-271.385932
-279.072243
-285.871673
-294.149240
-298.583650
-301.244297
-303.609316
-306.565589
-305.974335
-305.087452
-304.200570
-305.974335
-303.904943
-302.426806
-301.835551
-300.357414
-296.809886
-292.375475
-287.645437
-282.619772
-276.115970
-267.838403
-258.673954
-250.396388
-239.753802
-230.884981
-220.538023
-208.417300
-196.296578
-181.515209
-167.029468
-152.839354
-138.649240
-122.389734
-103.469582
-88.688213
-72.428707
-56.760456
-41.979087
-26.310837
-10.051331
4.069159
20.055140
33.134579
47.085981
60.456075
73.826168
85.452336
98.822430
109.576636
122.074766
134.863551
146.489720
159.859813
169.160748
181.658879
197.354206
211.014953
222.931776
230.779439
241.824299
250.543925
260.426168
269.145794
274.958879
283.097196
290.072897
296.757944
301.699065
304.896262
307.802804
307.221495
308.674766
308.674766
307.802804
307.512150
308.384112
306.058879
304.896262
302.280374
300.245794
295.014019
291.816822
283.969159
279.609346
272.342991
262.170093
254.031776
245.312150
234.848598
224.966355
212.177570
198.807477
184.856075
169.451402
156.081308
142.129907
126.143925
109.867290
92.718692
76.442056
61.618692
45.923364
31.100000
15.114019
-0.591255
-14.781369
-30.153992
-43.752852
-56.760456
-70.359316
-82.480038
-94.896388
-106.130228
-120.024715
-130.962928
-144.857414
-158.160646
-168.211977
-179.741445
-195.409696
-209.599810
-220.242395
-229.111217
-238.866920
-248.326996
-256.308935
-265.473384
-271.385932
-279.663498
-285.871673
-292.671103
-297.696768
-301.835551
-304.200570
-305.974335
-305.678707
-307.452471
-305.974335
-305.087452
-305.678707
-303.313688
-301.244297
-298.288023
-296.514259
-293.557985
-286.167300
-281.437262
-274.933460
-266.655894
-258.969582
-250.100760
-240.640684
-230.293726
-218.468631
-206.939163
-194.227186
-181.219582
-166.438213
-150.769962
-136.284221
-121.207224
-104.652091
-86.323194
-73.019962
-55.577947
-41.387833
-24.537072
-9.164449
6.685047
19.473832
34.587850
48.539252
61.618692
74.116822
88.068224
99.403738
109.576636
122.074766
135.444860
148.524299
161.022430
171.195327
184.274766
199.970093
214.793458
225.547664
233.104673
242.405607
253.159813
263.042056
269.436449
276.412150
283.097196
290.363551
297.339252
301.699065
305.477570
307.221495
308.674766
309.837383
309.837383
309.256075
310.128037
307.802804
304.605607
303.442991
301.408411
299.373832
295.595327
290.363551
286.003738
279.318692
270.599065
262.170093
253.450467
244.730841
234.557944
222.350467
212.177570
199.679439
184.565421
168.870093
153.756075
140.385981
125.853271
106.960748
91.556075
75.570093
60.165421
45.051402
28.774766
13.370093
-1.478137
-16.555133
-30.153992
-44.344106
-57.647338
-71.246198
-84.253802
-97.852662
-108.495247
-121.207224
-134.806084
-146.926806
-160.525665
-170.281369
-181.515209
-198.070342
-210.486692
-222.016160
-230.293726
-239.458175
-250.396388
-258.673954
-266.064639
-272.864068
-279.663498
-287.645437
-293.557985
-298.583650
-303.313688
-303.018061
-304.200570
-306.565589
-307.156844
-306.565589
-305.678707
-304.791825
-303.313688
-300.948669
-299.470532
-295.331749
-291.192966
-286.758555
-281.437262
-274.342205
-268.429658
-258.673954
-250.987643
-240.936312
-230.884981
-219.059886
-207.234791
-193.340304
-178.263308
-164.664449
-150.474335
-136.284221
-119.433460
-103.469582
-85.731939
-72.133080
-54.099810
-41.092205
-24.537072
-9.755703
7.557009
20.345794
35.459813
47.957944
61.618692
76.151402
88.358879
100.566355
111.320561
124.400000
136.026168
150.268224
161.894393
170.032710
184.274766
198.807477
213.921495
224.094393
233.104673
243.858879
252.869159
261.588785
268.564486
276.993458
283.969159
290.654206
297.339252
302.571028
304.605607
307.802804
308.965421
308.965421
307.221495
308.674766
308.093458
306.640187
305.768224
304.024299
302.280374
299.373832
295.595327
291.526168
283.969159
279.028037
270.599065
262.751402
252.578505
243.568224
232.523364
222.059813
209.852336
197.354206
182.821495
169.451402
153.174766
138.932710
124.109346
106.670093
90.102804
75.570093
59.584112
45.632710
28.774766
12.788785
-2.660646
-16.259506
-30.449620
-44.935361
-57.647338
-72.428707
-85.140684
-97.557034
-109.382129
-120.615970
-133.623574
-146.631179
-159.343156
-169.394487
-181.219582
-198.070342
-212.556084
-220.833650
-231.180608
-239.458175
-248.918251
-260.152091
-264.586502
-273.455323
-279.959125
-288.532319
-295.331749
-299.174905
-302.722433
-302.722433
-306.269962
-306.861217
-305.678707
-306.861217
-306.565589
-304.791825
-302.131179
-301.835551
-300.653042
-296.218631
-291.192966
-286.167300
-280.846008
-274.046578
-266.951521
-258.082700
-249.213878
-240.049430
-230.293726
-218.764259
-207.826046
-193.931559
-179.150190
-164.368821
-151.361217
-137.466730
-122.094106
-101.695817
-86.914449
-70.654943
-54.395437
-39.909696
-23.945817
-7.390684
6.103738
21.217757
34.878505
48.248598
63.362617
74.988785
87.196262
99.694393
110.739252
124.400000
136.607477
147.652336
161.313084
171.485981
183.112150
199.679439
213.340187
224.094393
232.232710
242.986916
251.997196
261.879439
270.308411
277.574766
284.259813
291.526168
298.792523
302.280374
305.768224
306.640187
307.512150
309.256075
309.837383
309.256075
308.965421
308.093458
305.768224
303.152336
301.699065
299.373832
295.885981
289.200935
284.841121
277.574766
271.180374
261.879439
253.159813
244.730841
233.104673
222.059813
211.014953
196.482243
182.530841
168.579439
154.046729
140.967290
124.109346
107.542056
90.974766
74.407477
61.037383
45.342056
29.065421
13.951402
-1.773764
-15.076996
-31.336502
-43.457224
-57.351711
-72.133080
-83.958175
-95.783270
-107.312738
-120.911597
-131.849810
-146.039924
-159.047529
-167.620722
-181.219582
-195.705323
-211.077947
-221.720532
-230.589354
-239.753802
-249.805133
-258.969582
-266.655894
-273.455323
-280.254753
-287.054183
-294.149240
-298.879278
-303.018061
-305.087452
-305.087452
-305.087452
-305.974335
-306.269962
-304.496198
-305.383080
-303.904943
-301.244297
-298.583650
-296.514259
-293.262357
-286.462928
-281.141635
-273.159696
-265.177757
-257.195817
-248.622624
-239.162548
-229.406844
-217.286122
-204.869772
-192.749049
-178.854563
-164.368821
-148.109316
-135.397338
-119.433460
-102.582700
-84.845057
-69.472433
-54.099810
-38.727186
-23.058935
-6.208175
7.847664
21.508411
36.622430
49.701869
64.234579
77.314019
89.812150
102.019626
114.517757
124.690654
138.060748
151.430841
162.766355
172.939252
185.728037
202.295327
214.793458
225.257009
233.395327
243.858879
254.613084
263.623364
270.017757
277.574766
284.841121
293.270093
297.920561
304.314953
305.768224
307.221495
307.221495
308.384112
308.384112
309.256075
309.256075
307.221495
306.349533
305.477570
301.989720
297.920561
296.176636
290.654206
285.131776
277.284112
270.017757
261.298131
252.287850
242.986916
232.232710
220.606542
209.271028
196.191589
182.530841
167.416822
151.430841
139.514019
122.365421
104.344860
89.521495
74.407477
58.421495
43.307477
27.321495
11.626168
-3.251901
-18.033270
-32.519011
-45.230989
-59.716730
-73.906844
-86.027567
-96.965779
-110.860266
-123.276616
-135.397338
-147.222433
-161.412548
-170.872624
-183.584601
-199.844106
-212.260456
-223.198669
-231.771863
-241.823194
-250.987643
-259.265209
-267.838403
-273.159696
-281.141635
-289.123574
-295.331749
-300.653042
-302.426806
-305.383080
-304.200570
-306.565589
-304.791825
-305.678707
-305.383080
-303.609316
-302.426806
-300.653042
-298.583650
-295.036122
-290.306084
-285.576046
-279.367871
-272.864068
-266.064639
-257.491445
-248.622624
-239.162548
-229.111217
-218.468631
-206.643536
-193.340304
-177.967681
-163.481939
-149.291825
-134.510456
-117.364068
-101.104563
-84.549430
-68.881179
-52.621673
-38.431559
-21.876426
-6.799430
8.138318
23.252336
36.041121
49.120561
64.234579
76.151402
88.940187
101.438318
113.064486
125.562617
137.479439
150.558879
163.057009
172.648598
185.146729
201.132710
214.793458
226.128972
233.976636
244.730841
254.322430
262.751402
270.308411
276.993458
285.131776
291.816822
298.792523
303.733645
305.186916
308.384112
308.674766
308.674766
308.674766
307.802804
308.093458
307.221495
306.058879
303.733645
301.989720
298.792523
296.176636
288.619626
283.969159
276.412150
268.855140
261.588785
253.450467
242.696262
232.523364
220.606542
208.108411
195.028972
180.786916
166.544860
152.012150
137.770093
121.202804
104.054206
87.486916
72.954206
57.840187
42.726168
26.449533
11.335514
-5.321293
-18.328897
-33.701521
-47.300380
-59.716730
-73.906844
-86.914449
-99.330798
-111.451521
-123.276616
-136.579848
-149.587452
-163.186312
-172.350760
-185.949620
-200.139734
-213.147338
-224.676806
-231.476236
-240.936312
-250.692015
-260.152091
-266.655894
-274.933460
-281.437262
-288.236692
-295.331749
-301.244297
-303.609316
-304.200570
-305.678707
-303.904943
-305.383080
-306.269962
-305.383080
-304.200570
-303.018061
-301.835551
-299.174905
-295.036122
-291.192966
-285.871673
-279.367871
-272.568441
-266.360266
-255.422053
-248.326996
-238.866920
-227.633080
-217.286122
-203.982890
-190.975285
-176.785171
-161.412548
-146.926806
-133.919202
-117.364068
