104.444653
30.924953
-6.528626
31.216698
38.510319
7.585366
7.001876
-7.715649
-21.959924
-35.610687
-50.151718
-63.802481
-77.156489
-90.510496
-101.787214
-114.547710
-128.198473
-142.739504
-154.609733
-165.886450
-179.240458
-194.671756
-209.509542
-219.302481
-227.611641
-236.811069
-244.823473
-252.539122
-257.287214
-265.893130
-270.937977
-277.466603
-283.104962
-287.259542
-282.808206
-284.885496
-283.104962
-274.795802
-273.608779
-268.860687
-257.583969
-246.604008
-236.514313
-226.424618
-212.180344
-198.529580
-179.537214
-162.028626
-147.190840
-131.759542
-116.031489
-100.006679
-80.124046
-61.131679
-49.558206
-34.423664
-20.772901
-4.748092
12.253283
28.299250
33.842402
48.721388
60.099437
74.103189
82.563790
91.316135
98.026266
102.694184
110.571295
117.864916
127.200750
127.492495
137.411820
141.496248
149.373358
155.208255
156.375235
161.626642
170.962477
170.670732
182.924015
189.050657
192.843340
196.344278
208.014071
226.102251
230.478424
238.063790
251.192308
259.652908
264.612570
270.155722
276.574109
285.618199
292.620075
295.537523
297.579737
306.040338
311.000000
307.207317
307.790807
307.499062
306.040338
309.833021
309.249531
306.915572
307.207317
306.915572
300.788931
298.746717
295.537523
289.994371
284.742964
276.282364
268.696998
259.944653
251.775797
242.148218
232.228893
220.559099
206.847092
193.718574
180.298311
167.461538
152.582552
137.995310
121.365854
104.444653
88.398687
72.644465
58.057223
43.178236
27.132270
11.961538
-4.154580
-16.618321
-33.236641
-45.997137
-60.241412
-74.188931
-87.839695
-100.303435
-111.876908
-126.714695
-138.584924
-150.455153
-164.402672
-175.976145
-189.033397
-203.574427
-216.334924
-226.127863
-237.107824
-244.823473
-255.506679
-260.254771
-268.860687
-278.653626
-285.479008
-291.117366
-299.723282
-301.207061
-305.064885
-308.922710
-306.548664
-308.032443
-310.109733
-311.000000
-309.219466
-306.548664
-305.658397
-302.690840
-298.239504
-294.975191
-290.523855
-285.775763
-277.169847
-266.783397
-256.693702
-248.978053
-237.404580
-225.534351
-214.257634
-200.606870
-181.614504
-167.073473
-149.861641
-133.836832
-116.921756
-100.600191
-80.420802
-62.021947
-44.513359
-28.488550
-11.573473
3.209193
17.212946
31.508443
44.636961
58.057223
70.310507
79.646341
93.066604
103.277674
114.072233
123.991557
134.494371
145.580675
154.916510
166.878049
176.797373
186.716698
199.845216
214.140713
224.935272
233.979362
243.023452
251.775797
259.652908
265.487805
272.781426
280.075047
284.159475
293.495310
297.871482
303.414634
306.332083
307.207317
308.374296
308.666041
309.541276
310.124765
307.790807
306.915572
305.748593
301.664165
299.038462
296.996248
292.911820
287.660413
282.117261
275.115385
267.821764
259.069418
251.484053
240.981238
230.186679
219.392120
206.847092
192.843340
180.590056
164.544090
151.415572
139.454034
121.365854
102.985929
88.106942
71.769231
57.765478
42.303002
25.965291
11.669794
-4.451336
-17.805344
-32.939885
-47.480916
-59.647901
-73.595420
-86.059160
-99.116412
-111.876908
-125.527672
-138.584924
-151.642176
-162.622137
-174.492366
-190.813931
-204.464695
-217.521947
-227.908397
-235.920802
-248.087786
-255.209924
-264.112595
-271.531489
-276.873092
-286.369275
-292.601145
-299.723282
-303.581107
-305.955153
-307.735687
-309.219466
-310.406489
-309.516221
-309.219466
-310.406489
-308.329198
-306.548664
-303.284351
-300.910305
-297.052481
-292.601145
-285.775763
-279.543893
-273.608779
-262.628817
-254.319656
-243.636450
-232.062977
-220.786260
-207.729008
-193.484733
-179.240458
-162.325382
-148.674618
-133.243321
-116.921756
-98.819656
-80.420802
-64.099237
-47.480916
-32.346374
-15.431298
-0.000000
14.587242
28.590994
41.136023
56.015009
68.560038
81.105066
92.191370
104.152908
115.530957
126.325516
137.411820
149.373358
161.334897
171.545966
181.465291
195.469043
210.348030
221.434334
231.353659
238.647280
248.274859
257.027205
264.320826
270.447467
279.199812
286.201689
292.911820
298.746717
302.539400
304.873358
306.332083
307.499062
308.082552
308.082552
307.790807
307.207317
306.332083
303.706379
302.539400
299.330206
296.121013
293.495310
287.076923
282.700750
275.698874
265.779550
258.777674
248.566604
240.106004
228.727955
217.933396
205.388368
190.801126
178.256098
163.085366
150.248593
136.244841
120.198874
100.943715
85.772983
70.018762
55.723265
38.802064
23.339587
7.877111
-5.341603
-20.179389
-34.126908
-47.480916
-62.912214
-75.672710
-87.839695
-101.787214
-113.360687
-126.417939
-139.178435
-152.532443
-164.699427
-175.085878
-190.220420
-206.245229
-219.895992
-228.501908
-238.294847
-247.494275
-256.990458
-265.002863
-270.937977
-278.950382
-286.072519
-293.194656
-298.239504
-304.174618
-307.142176
-307.735687
-309.516221
-310.406489
-310.406489
-310.109733
-308.922710
-307.735687
-305.064885
-302.690840
-300.613550
-297.052481
-291.414122
-287.853053
-282.511450
-272.421756
-266.189885
-253.726145
-246.307252
-235.920802
-223.457061
-210.399809
-197.045802
-181.614504
-168.557252
-153.125954
-138.288168
-122.560115
-102.677481
-84.872137
-68.847328
-52.822519
-37.984733
-21.366412
-4.451336
9.919325
23.631332
37.051595
49.888368
64.475610
74.978424
88.982176
101.527205
112.030019
123.699812
135.661351
146.164165
159.292683
170.378987
181.465291
194.885553
209.764540
219.975610
231.061914
238.939024
247.399625
255.860225
262.862101
271.322702
277.449343
285.034709
293.203565
297.871482
302.247655
304.873358
306.623827
308.082552
307.207317
307.499062
306.623827
306.915572
306.915572
303.414634
301.664165
298.746717
296.121013
290.577861
286.201689
280.950281
274.823640
266.654784
256.443715
249.150094
238.063790
228.727955
217.058161
203.929644
191.384615
176.213884
161.918386
148.206379
134.494371
116.406191
99.484991
83.439024
67.976548
53.681051
37.051595
22.172608
6.710131
-7.418893
-21.663168
-36.500954
-49.558206
-63.505725
-76.266221
-90.510496
-102.083969
-115.141221
-127.011450
-140.365458
-154.312977
-166.479962
-175.382634
-192.594466
-208.322519
-219.302481
-230.282443
-238.591603
-248.087786
-257.287214
-264.409351
-270.937977
-280.137405
-288.743321
-293.788168
-300.020038
-304.471374
-305.955153
-307.735687
-309.219466
-309.516221
-309.516221
-308.922710
-309.516221
-308.329198
-305.658397
-303.877863
-301.503817
-296.458969
-292.304389
-286.962786
-280.434160
-273.905534
-266.486641
-256.693702
-246.900763
-235.624046
-224.347328
-211.586832
-198.529580
-183.988550
-169.150763
-154.016221
-139.178435
-123.153626
-104.754771
-86.949427
-71.814885
-56.383588
-40.655534
-24.630725
-8.309160
6.418386
21.005629
35.301126
48.137899
63.016886
74.978424
86.648218
99.776735
111.154784
122.532833
134.494371
146.164165
159.876173
169.503752
181.173546
194.302064
208.889306
220.850844
229.019700
237.480300
247.399625
256.443715
262.862101
271.322702
278.908068
285.909944
294.370544
298.746717
303.414634
304.873358
307.207317
307.499062
308.082552
306.040338
308.082552
306.915572
305.165103
303.706379
301.372420
299.621951
295.829268
290.577861
285.618199
279.199812
272.781426
264.612570
257.902439
247.983114
238.939024
226.393996
215.015947
202.762664
188.467167
175.046904
160.751407
147.622889
133.327392
114.363977
98.901501
80.521576
66.226079
51.930582
35.884615
19.838649
4.959662
-9.792939
-24.333969
-37.391221
-51.635496
-64.989504
-77.453244
-91.697519
-104.458015
-117.515267
-129.979008
-141.849237
-155.203244
-167.666985
-177.459924
-193.781489
-208.619275
-221.083015
-230.875954
-240.372137
-248.978053
-257.583969
-263.815840
-272.421756
-281.917939
-287.853053
-295.271947
-300.316794
-301.800573
-305.658397
-308.032443
-309.812977
-309.812977
-309.219466
-309.812977
-308.032443
-308.625954
-305.361641
-302.690840
-300.613550
-296.458969
-291.117366
-286.369275
-280.137405
-273.312023
-264.706107
-255.803435
-247.197519
-236.811069
-224.050573
-211.586832
-198.826336
-184.878817
-169.447519
-154.016221
-140.958969
-125.230916
-106.535305
-87.542939
-71.814885
-56.086832
-41.545802
-25.224237
-9.792939
5.251407
19.838649
33.842402
48.137899
61.266417
73.519700
85.772983
98.026266
110.571295
121.074109
133.619137
145.872420
158.125704
169.212008
180.006567
194.593809
209.181051
220.267355
228.144465
239.522514
247.107880
255.860225
263.737336
271.322702
279.199812
287.368668
293.787054
300.205441
302.831144
305.165103
306.332083
307.790807
306.623827
308.374296
306.915572
306.915572
304.873358
304.581614
300.788931
299.330206
295.829268
290.577861
285.618199
279.491557
273.656660
263.737336
255.568480
247.983114
237.772045
225.518762
215.307692
201.887430
188.758912
173.588180
158.709193
147.039400
132.160413
114.363977
96.567542
81.396811
65.350844
51.638837
36.759850
20.713884
5.543152
-9.792939
-23.740458
-39.171756
-51.932252
-64.989504
-78.640267
-91.104008
-105.051527
-116.328244
-129.979008
-141.849237
-154.609733
-167.963740
-178.053435
-192.891221
-209.212786
-220.192748
-229.688931
-239.185115
-248.978053
-258.474237
-265.596374
-271.531489
-279.543893
-287.853053
-295.568702
-300.316794
-305.064885
-306.845420
-307.735687
-309.812977
-308.329198
-309.219466
-308.922710
-308.032443
-307.438931
-305.064885
-302.394084
-300.316794
-297.052481
-291.710878
-286.666031
-279.840649
-273.015267
-264.409351
-254.913168
-246.604008
-235.030534
-224.644084
-209.509542
-198.826336
-183.098282
-167.666985
-153.422710
-138.881679
-123.747137
-105.645038
-88.136450
-71.518130
-55.196565
-40.062023
-24.927481
-8.902672
7.001876
21.297373
34.717636
48.721388
61.558161
74.103189
86.648218
99.484991
111.154784
122.532833
135.661351
147.039400
160.167917
169.795497
181.465291
195.760788
210.931520
222.017824
229.603189
239.814259
248.566604
256.443715
264.904315
274.240150
280.658537
286.493433
294.370544
300.205441
304.873358
306.040338
307.499062
307.207317
308.957786
308.082552
307.790807
306.915572
306.040338
303.122889
301.955910
298.746717
295.537523
291.453096
284.742964
278.616323
272.489681
264.029081
255.568480
247.107880
235.438086
225.810507
214.724203
202.179174
185.841463
172.712946
156.375235
144.121951
130.118199
112.613508
93.941839
78.479362
63.308630
48.137899
32.675422
16.921201
1.750469
-13.354008
-28.785305
-40.358779
-54.603053
-67.066794
-81.014313
-94.665076
-105.941794
-119.295802
-132.353053
-144.520038
-158.467557
-168.854008
-181.317748
-196.452290
-210.993321
-221.676527
-230.282443
-240.965649
-251.648855
-258.177481
-265.893130
-273.608779
-280.730916
-290.820611
-296.162214
-301.207061
-305.361641
-306.251908
-308.625954
-308.625954
-309.516221
-310.406489
-308.032443
-308.032443
-306.845420
-305.064885
-303.284351
-300.020038
-297.645992
-290.820611
-285.775763
-278.060115
-271.828244
-263.815840
-254.913168
-246.307252
-234.140267
-223.160305
-209.806298
-197.342557
-181.911260
-167.370229
-152.532443
-138.288168
-122.856870
-104.754771
-86.949427
-72.111641
-54.899809
-40.952290
-24.927481
-7.715649
5.543152
20.713884
35.009381
49.596623
62.141651
75.853659
88.106942
99.776735
111.738274
122.824578
136.828330
148.206379
160.751407
170.378987
182.340525
198.094747
212.390244
222.309568
230.478424
241.564728
250.025328
258.194184
266.071295
273.656660
280.366792
288.243902
295.245779
300.497186
304.581614
305.748593
306.915572
308.374296
308.666041
308.374296
308.374296
307.207317
304.581614
303.998124
301.664165
300.497186
295.537523
291.744841
284.451220
280.075047
272.489681
264.320826
255.276735
245.649156
237.188555
224.351782
212.973734
199.261726
186.133208
172.712946
159.000938
146.164165
130.118199
110.571295
94.525328
78.187617
63.016886
48.429644
32.383677
16.629456
0.291745
-13.650763
-27.301527
-42.139313
-55.493321
-68.847328
-81.607824
-93.181298
-105.645038
-118.999046
-130.572519
-143.629771
-156.687023
-167.073473
-178.350191
-194.968511
-210.103053
-221.379771
-230.579198
-239.185115
-249.868321
-258.177481
-266.783397
-273.312023
-280.730916
-289.040076
-295.568702
-300.613550
-302.690840
-305.658397
-308.329198
-308.922710
-309.812977
-308.625954
-308.329198
-306.548664
-307.142176
-304.768130
-303.284351
-298.536260
-294.084924
-290.227099
-283.401718
-278.060115
-270.937977
-262.332061
-252.835878
-244.823473
-235.327290
-222.566794
-210.399809
-195.858779
-183.691794
-167.666985
-151.938931
-138.881679
-122.560115
-102.974237
-86.355916
-70.627863
-55.196565
-39.765267
-23.146947
-8.309160
6.418386
21.589118
34.717636
49.013133
63.016886
74.978424
87.523452
100.068480
111.446529
123.991557
135.953096
148.498124
160.751407
171.254221
182.340525
198.386492
211.515009
222.017824
232.228893
240.689493
249.733583
259.069418
266.654784
273.948405
281.533771
288.827392
295.829268
301.664165
305.165103
306.040338
307.499062
308.082552
307.790807
307.790807
307.790807
307.207317
305.748593
303.414634
301.372420
298.163227
295.537523
290.286116
285.326454
278.032833
272.781426
263.445591
254.109756
245.940901
234.562852
224.351782
210.639775
198.969981
184.382739
169.795497
156.083490
142.371482
126.325516
108.820826
91.899625
74.978424
60.391182
46.095685
30.924953
13.712008
-0.593511
-15.134542
-29.378817
-44.216603
-57.570611
-71.518130
-83.091603
-96.742366
-110.096374
-120.186069
-134.133588
-147.190840
-159.654580
-169.447519
-183.395038
-197.639313
-212.773855
-224.050573
-232.656489
-242.449427
-250.758588
-260.254771
-266.189885
-274.795802
-282.511450
-289.930344
-297.942748
-301.207061
-303.877863
-308.032443
-308.625954
-308.329198
-310.109733
-308.922710
-308.625954
-308.032443
-306.548664
-304.471374
-301.207061
-300.020038
-295.865458
-289.930344
-284.885496
-278.950382
-271.531489
-262.035305
-252.835878
-244.229962
-232.953244
-222.566794
-208.322519
-194.375000
-181.020992
-165.886450
-151.048664
-138.288168
-121.966603
-102.677481
-85.168893
-71.518130
-53.416031
-40.062023
-23.443702
-7.122137
8.168856
22.464353
37.635084
50.763602
64.475610
76.437148
88.982176
102.110694
113.196998
124.866792
137.120075
149.081614
161.918386
170.670732
184.382739
198.969981
213.265478
223.476548
232.520638
242.439962
251.192308
259.652908
266.946529
273.656660
282.117261
290.286116
297.287992
301.372420
303.998124
306.332083
307.499062
308.082552
308.666041
307.790807
308.082552
307.790807
305.748593
303.414634
301.372420
298.746717
294.954034
290.286116
285.326454
277.741088
271.030957
262.278612
253.818011
244.190432
233.687617
223.184803
210.056285
198.386492
184.674484
169.503752
156.375235
142.079737
126.033771
105.903377
90.732645
73.519700
60.682927
45.220450
28.007505
13.712008
-2.670802
-16.915076
-31.456107
-44.216603
-57.273855
-70.627863
-83.091603
-96.148855
-108.019084
-121.669847
-133.243321
-145.707061
-159.061069
-169.447519
-183.098282
-198.529580
-212.180344
-224.050573
-233.250000
-242.449427
-252.539122
-259.364504
-266.189885
-275.389313
-281.621183
-290.227099
-296.755725
-300.613550
-305.955153
-308.032443
-308.922710
-309.516221
-308.032443
-307.142176
-309.219466
-307.735687
-305.955153
-303.877863
-300.910305
-299.129771
-293.194656
-288.446565
-283.698473
-277.169847
-269.454198
-260.254771
-250.461832
-242.746183
-233.250000
-220.192748
-208.916031
-193.187977
-181.317748
-166.776718
-152.235687
-138.881679
-121.373092
-102.974237
-85.762405
-68.847328
-54.009542
-38.875000
-21.959924
-7.122137
7.585366
22.464353
36.176360
50.763602
63.308630
75.561914
88.982176
100.651970
113.196998
124.866792
137.411820
148.498124
162.210131
171.837711
184.382739
198.969981
213.557223
224.060038
233.104128
242.439962
251.484053
260.528143
267.238274
275.990619
283.284240
291.744841
299.038462
302.831144
305.456848
306.623827
308.082552
308.082552
307.790807
307.499062
307.499062
307.499062
305.165103
303.122889
300.497186
298.163227
294.370544
288.827392
284.159475
277.157598
270.739212
261.986867
252.651032
244.190432
231.937148
222.893058
209.472795
196.927767
182.340525
167.461538
153.457786
139.745779
124.575047
105.319887
88.398687
73.227955
57.765478
43.178236
27.132270
11.086304
-3.264313
-18.398855
-33.236641
-47.184160
-60.538168
-72.705153
-85.465649
-98.819656
-111.283397
-122.856870
-135.023855
-148.081107
-160.544847
-171.228053
-184.878817
-200.310115
-214.257634
-223.753817
-233.843511
-243.933206
-252.539122
-259.661260
-267.970420
-275.686069
-283.401718
-291.710878
-297.349237
-303.877863
-305.955153
-307.142176
-308.329198
-309.219466
-308.922710
-307.735687
-307.142176
-306.845420
-306.548664
-303.581107
-300.613550
-297.052481
-293.194656
-288.149809
-283.104962
-277.466603
-269.454198
-260.848282
-250.165076
-242.746183
-232.359733
-219.599237
-208.619275
-193.781489
-180.130725
-165.292939
-151.048664
-136.210878
-119.889313
-100.303435
-83.981870
-68.550573
-53.119275
-36.797710
-20.476145
-6.528626
8.460600
23.923077
37.343340
49.596623
63.600375
77.604128
89.273921
100.943715
114.072233
125.742026
137.703565
149.665103
162.210131
172.129456
186.424953
201.595685
213.557223
224.643527
233.395872
242.731707
252.651032
261.695122
270.155722
276.282364
284.742964
291.744841
296.704503
303.122889
304.581614
306.040338
308.082552
308.666041
308.957786
308.374296
308.374296
306.915572
304.873358
302.539400
301.372420
298.163227
294.370544
288.535647
283.575985
277.449343
269.572233
260.236398
252.359287
243.023452
232.520638
220.559099
210.348030
193.426829
180.298311
166.586304
151.707317
139.454034
121.365854
102.110694
86.939962
70.893996
57.473734
41.136023
24.506567
9.627580
-5.638359
-19.585878
-33.830153
-46.887405
-61.131679
-74.782443
-88.136450
-100.303435
-112.470420
-125.527672
-137.101145
-151.048664
-162.622137
-173.602099
-185.472328
-203.871183
-216.038168
-226.127863
-235.327290
-244.526718
-252.835878
-260.551527
-270.047710
-275.982824
-285.182252
-291.414122
-297.052481
-301.503817
-306.845420
-308.329198
-308.922710
-308.625954
-308.625954
-308.922710
-308.922710
-307.735687
-305.361641
-303.284351
-301.800573
-297.645992
-293.491412
-289.040076
-281.621183
-275.982824
-268.267176
-260.254771
-249.274809
-241.559160
-229.688931
-218.412214
-205.948473
-192.297710
-178.350191
-163.215649
-148.971374
-133.836832
-116.625000
-98.226145
-83.685115
-66.176527
-51.041985
-34.126908
-17.805344
-2.670802
11.669794
26.840525
39.385553
51.930582
66.517824
77.895872
91.899625
103.569418
114.655722
126.617261
139.454034
151.123827
163.668856
173.296435
187.008443
203.346154
216.182927
226.102251
235.146341
245.357411
253.818011
261.986867
267.821764
277.449343
284.451220
292.911820
298.746717
303.414634
305.456848
305.748593
308.666041
307.790807
308.374296
308.374296
308.374296
306.915572
306.040338
304.581614
301.372420
298.454972
294.662289
288.827392
282.992495
277.741088
269.572233
260.236398
252.359287
242.439962
232.812383
219.975610
208.014071
193.718574
179.131332
165.419325
151.999062
137.995310
120.490619
101.818949
86.939962
70.893996
57.181989
40.260788
23.631332
7.877111
-7.122137
-19.585878
-34.423664
-47.480916
-62.021947
-75.079198
-88.729962
-99.413168
-112.173664
-124.637405
-136.210878
-150.158397
-161.138359
-172.711832
-186.659351
-202.387405
-215.444656
-225.831107
-235.624046
-244.229962
-254.022901
-262.332061
-269.454198
-277.169847
-285.182252
-292.897901
-297.942748
-303.284351
-305.361641
-308.329198
-308.329198
-308.625954
-309.219466
-308.329198
-307.438931
-308.329198
-304.768130
-304.174618
-300.020038
-297.052481
-292.897901
-287.853053
-281.917939
-275.982824
-267.673664
-258.474237
-250.461832
-240.965649
-229.095420
-219.895992
-205.058206
-192.297710
-176.866412
-162.325382
-148.674618
-133.243321
-116.625000
-99.116412
-81.014313
-67.363550
-49.558206
-35.313931
-18.695611
-3.561069
10.211069
25.090056
38.802064
52.805816
66.226079
78.187617
91.024390
103.277674
114.655722
126.617261
139.162289
150.832083
164.544090
173.588180
187.883677
202.470919
216.766417
226.685741
234.854597
244.773921
254.109756
261.986867
269.280488
276.865854
285.326454
292.911820
299.330206
303.706379
306.040338
306.623827
308.082552
308.666041
309.249531
308.082552
308.666041
308.082552
304.873358
303.122889
300.788931
298.163227
293.495310
287.368668
282.409006
277.449343
268.988743
259.652908
252.067542
241.564728
231.061914
219.975610
207.430582
191.968105
180.590056
164.544090
150.540338
137.411820
119.615385
100.943715
84.022514
70.310507
54.556285
38.510319
23.339587
7.293621
-6.528626
-21.663168
-35.907443
-48.964695
-62.615458
-75.079198
-89.026718
-99.709924
-112.767176
-125.527672
-137.397901
-151.642176
-162.325382
-173.008588
-186.956107
-204.167939
-215.444656
-227.314885
-235.920802
-243.933206
-254.913168
-261.441794
-268.563931
-276.576336
-284.588740
-292.601145
-297.942748
-302.987595
-305.361641
-306.251908
-308.032443
-308.329198
-308.922710
-308.032443
-308.329198
-306.845420
-304.174618
-303.284351
-299.426527
-298.239504
-292.897901
-286.666031
-282.214695
-275.686069
-267.673664
-259.364504
-249.274809
-239.778626
-227.908397
-217.818702
-204.167939
-189.923664
-176.866412
-162.325382
-147.487595
-133.540076
-115.734733
-98.226145
-79.827290
-65.583015
-48.964695
-35.313931
-18.398855
-3.561069
11.086304
25.965291
40.260788
53.972795
67.976548
79.646341
91.316135
104.444653
115.822702
127.784240
140.621013
152.874296
163.668856
174.755159
189.925891
203.929644
217.349906
226.393996
236.021576
246.232645
253.818011
263.153846
271.322702
278.032833
287.076923
293.787054
298.746717
303.414634
306.332083
307.207317
309.249531
308.666041
308.957786
308.082552
307.207317
308.374296
305.165103
303.414634
299.621951
299.330206
293.495310
287.076923
281.825516
275.698874
269.280488
259.361163
250.025328
240.689493
229.019700
219.100375
205.096623
193.426829
178.256098
163.377111
149.956848
135.077861
118.740150
99.484991
83.147280
67.393058
53.681051
37.051595
20.422139
4.667917
-10.089695
-23.146947
-37.687977
-51.338740
-64.099237
-77.453244
-89.620229
-102.380725
-114.844466
-127.011450
-140.068702
-152.829198
-165.589695
-174.195611
-189.923664
-205.651718
-218.115458
-228.798664
-237.701336
-246.604008
-256.396947
-262.628817
-270.344466
-278.356870
-284.588740
-293.194656
-300.316794
-305.064885
-307.142176
-307.142176
-307.735687
-308.625954
-308.922710
-308.329198
-308.922710
-307.142176
-304.768130
-303.581107
-300.613550
-296.458969
-292.601145
-286.962786
-281.027672
-275.092557
-266.783397
-258.474237
-248.681298
-238.888359
-229.392176
-215.741412
-204.167939
-188.439885
-175.085878
-159.951336
-147.784351
-132.056298
-113.360687
-95.555344
-79.827290
-64.395992
-49.854962
-32.939885
-16.321565
-1.187023
13.420263
26.548780
40.260788
53.972795
67.101313
81.396811
92.774859
104.736398
116.697936
128.075985
140.912758
154.041276
164.252345
175.630394
189.342402
205.971857
218.516886
226.977486
238.355535
246.816135
255.860225
263.445591
271.030957
279.783302
285.618199
292.911820
301.080675
303.998124
306.915572
307.499062
308.374296
308.957786
308.957786
308.666041
308.374296
306.915572
304.873358
303.706379
300.497186
297.287992
292.620075
288.243902
281.242026
275.115385
266.363039
258.194184
248.274859
239.522514
229.019700
216.182927
205.388368
189.050657
177.964353
161.918386
149.373358
134.494371
117.281426
97.442777
83.439024
68.851782
52.805816
37.051595
21.005629
4.959662
-8.902672
-24.630725
-37.391221
-52.822519
-64.395992
-77.750000
-91.104008
-102.380725
-115.141221
-126.121183
-139.475191
-152.235687
-163.215649
-175.085878
-190.517176
-205.651718
-218.708969
-226.424618
-236.514313
-246.010496
-255.209924
-263.222328
-270.641221
-278.060115
-285.775763
-293.788168
-298.536260
-303.581107
-305.955153
-306.845420
-308.329198
-308.329198
-308.625954
-308.329198
-307.142176
-305.658397
-303.877863
-303.284351
-300.020038
-297.052481
-291.414122
-287.259542
-280.730916
-274.202290
-266.189885
-257.287214
-248.681298
-237.404580
-227.314885
-216.038168
-201.793893
-188.143130
-173.898855
-158.467557
-146.003817
-130.572519
-112.173664
-93.774809
-78.343511
-62.021947
-47.777672
-31.159351
-12.760496
1.166979
14.878987
28.882739
42.303002
56.015009
69.435272
81.980300
94.817073
106.778612
118.740150
130.409944
143.246717
154.916510
167.169794
178.256098
193.426829
207.722326
219.683865
229.603189
239.230769
247.107880
257.610694
263.445591
272.197936
280.075047
286.493433
295.245779
300.205441
305.456848
306.915572
307.499062
309.541276
308.082552
308.082552
310.124765
307.790807
307.499062
305.748593
303.122889
301.664165
296.704503
292.328330
287.368668
281.825516
275.698874
267.530019
258.485929
248.566604
239.814259
228.144465
216.766417
202.762664
188.758912
175.630394
160.751407
147.622889
132.743902
114.072233
95.984053
79.938086
65.934334
50.763602
34.134146
17.796435
2.042214
-12.166985
-25.817748
-39.468511
-53.119275
-65.879771
-80.717557
-93.774809
-105.645038
-117.218511
-129.979008
-140.958969
-155.203244
-166.183206
-178.053435
-192.594466
-209.806298
-219.895992
-229.688931
-238.888359
-248.384542
-255.209924
-263.815840
-270.344466
-279.543893
-287.259542
-294.084924
-298.833015
-303.284351
-305.361641
-307.735687
-307.735687
-308.329198
-309.219466
-309.219466
-307.735687
-308.032443
-303.877863
-302.394084
-300.020038
-295.568702
-290.820611
-284.885496
-280.137405
-274.202290
-263.815840
-256.693702
-248.087786
-237.107824
-225.831107
-214.554389
-200.310115
-186.659351
-172.711832
-156.687023
-143.036260
-128.198473
-111.283397
-92.291031
-75.079198
-61.131679
-45.700382
-29.082061
-13.650763
1.750469
16.337711
31.216698
44.636961
58.348968
71.769231
83.147280
95.984053
107.653846
119.907129
132.160413
144.413696
156.958724
167.461538
179.423077
193.426829
209.472795
220.850844
229.311445
240.689493
248.858349
258.485929
265.487805
272.197936
280.075047
288.243902
296.704503
300.788931
303.706379
306.332083
308.082552
308.374296
308.957786
308.957786
308.374296
308.082552
307.207317
305.456848
303.122889
300.497186
297.579737
293.495310
287.076923
281.533771
274.240150
266.071295
257.027205
248.274859
238.647280
226.685741
215.891182
202.179174
189.342402
175.046904
160.167917
145.288931
131.285178
113.488743
97.151032
79.646341
64.767355
49.888368
33.550657
18.963415
2.917448
-12.463740
-26.411260
-40.952290
-54.009542
-67.660305
-80.124046
-92.291031
-105.941794
-117.218511
-130.572519
-141.849237
-155.203244
-165.292939
-177.163168
-192.594466
-208.025763
-219.895992
-228.798664
-238.591603
-248.087786
-258.177481
-264.409351
-271.828244
-278.060115
-287.853053
-293.788168
-299.723282
-305.658397
-304.768130
-306.845420
-308.922710
-307.438931
-308.922710
-307.142176
-306.845420
-305.658397
-303.581107
-303.581107
-298.833015
-296.162214
-292.007634
-285.182252
-278.950382
-273.015267
-263.815840
-254.616412
-246.604008
-236.811069
-224.347328
-212.773855
-200.013359
-186.659351
-170.337786
-156.390267
-143.629771
-126.417939
-108.315840
-91.400763
-77.156489
-60.538168
-45.403626
-29.082061
-12.463740
2.333959
15.754221
31.508443
44.636961
58.348968
71.185741
83.730769
95.692308
107.653846
119.907129
132.743902
144.413696
157.250469
167.753283
178.839587
194.302064
210.348030
219.975610
230.478424
239.522514
249.150094
258.777674
264.904315
273.948405
281.533771
288.243902
296.412758
300.497186
304.873358
307.207317
308.666041
308.082552
309.541276
309.541276
309.249531
307.499062
306.623827
304.873358
302.247655
300.497186
296.121013
291.453096
287.660413
280.366792
274.240150
264.904315
256.443715
247.983114
238.355535
227.269231
215.891182
201.595685
189.342402
173.588180
158.125704
146.164165
129.826454
111.738274
95.400563
77.604128
64.475610
48.429644
32.383677
17.212946
0.875235
-12.166985
-27.004771
-41.545802
-53.416031
-67.363550
-80.420802
-93.774809
-105.645038
-116.625000
-131.462786
-141.849237
-156.093511
-165.886450
-177.756679
-192.891221
-208.619275
-219.302481
-228.798664
-239.481870
-246.900763
-258.474237
-264.706107
-272.125000
-280.434160
-287.556298
-294.975191
-299.723282
-302.394084
-305.955153
-308.032443
-307.735687
-308.625954
-307.438931
-306.845420
-307.735687
-305.361641
-303.877863
-302.394084
-297.942748
-294.975191
-289.336832
-286.072519
-278.950382
-271.828244
-264.112595
-254.616412
-245.713740
-234.437023
-222.566794
-212.180344
-197.342557
-184.582061
-171.228053
-154.906489
-141.849237
-125.824427
-106.832061
-89.323473
-74.188931
-57.867366
-43.919847
-26.411260
-10.683206
3.792683
18.671670
32.967167
45.512195
60.391182
74.103189
85.772983
98.026266
109.987805
121.949343
134.494371
147.039400
160.167917
170.087242
181.173546
197.219512
210.056285
222.893058
231.061914
241.272983
250.900563
259.069418
266.654784
275.698874
282.992495
289.702627
297.579737
301.664165
305.456848
306.915572
310.124765
309.541276
309.541276
309.541276
309.249531
309.833021
307.499062
305.456848
303.122889
299.913696
296.704503
292.328330
286.493433
280.366792
272.781426
264.029081
256.443715
247.107880
236.896811
224.643527
215.307692
201.012195
187.300188
172.712946
156.083490
143.538462
128.659475
109.987805
92.774859
75.561914
62.141651
46.387430
30.924953
14.587242
-0.890267
-15.134542
-29.675573
-43.623092
-58.164122
-70.331107
-83.685115
-95.852099
-108.909351
-120.779580
-131.759542
-146.003817
-157.577290
-168.260496
-180.427481
-196.155534
-209.509542
-221.379771
-229.688931
-239.778626
-249.274809
-258.177481
-264.706107
-273.015267
-281.324427
-288.743321
-295.568702
-299.723282
-304.471374
-307.142176
-308.032443
-309.219466
-308.329198
-308.625954
-307.735687
-306.845420
-305.955153
-303.581107
-302.097328
-298.833015
-295.271947
-290.227099
-284.885496
-277.466603
-271.234733
-263.222328
-254.319656
-243.933206
-233.843511
-223.457061
-210.103053
-197.045802
-184.285305
-168.557252
-153.719466
-140.068702
-123.747137
-104.754771
-88.729962
-71.518130
-56.383588
-41.249046
-25.224237
-9.199427
4.667917
19.838649
34.425891
47.262664
61.266417
74.394934
87.523452
98.901501
112.321764
122.241088
135.661351
147.331144
159.292683
170.670732
182.632270
197.803002
211.515009
223.184803
231.353659
242.439962
250.025328
259.652908
266.946529
273.364916
281.825516
290.286116
296.121013
301.955910
306.040338
307.499062
308.666041
308.957786
310.124765
308.957786
309.541276
307.499062
307.207317
304.873358
302.247655
299.913696
296.121013
291.453096
285.909944
281.242026
272.781426
265.196060
255.568480
246.524390
236.313321
224.935272
211.515009
200.136961
185.549719
170.670732
155.500000
143.246717
127.492495
107.653846
92.191370
76.145403
61.849906
45.220450
30.049719
14.003752
-1.187023
-15.134542
-29.675573
-42.732824
-58.164122
-70.627863
-83.685115
-96.148855
-107.128817
-120.779580
-133.243321
-144.816794
-159.061069
-168.854008
-182.504771
-196.452290
-210.399809
-222.566794
-231.469466
-240.965649
-249.868321
-258.474237
-266.189885
-272.125000
-281.324427
-287.853053
-297.645992
-300.613550
-304.768130
-306.548664
-306.845420
-308.032443
-308.032443
-307.735687
-307.142176
-307.735687
-305.658397
-303.284351
-300.316794
-297.645992
-294.084924
-290.227099
-283.995229
-277.763359
-270.344466
-259.958015
-251.648855
-243.339695
-232.656489
-222.270038
-209.509542
-195.562023
-183.098282
-167.666985
-152.829198
-140.068702
-123.450382
-104.161260
-87.542939
-72.705153
-56.680344
-40.655534
-25.224237
-10.386450
5.251407
18.379925
34.717636
47.262664
62.433396
74.103189
87.815197
99.776735
109.404315
123.116323
134.202627
147.039400
159.292683
169.795497
181.173546
198.094747
212.681989
223.184803
232.812383
241.856473
251.775797
260.819887
268.113508
275.407129
283.284240
289.702627
298.163227
301.955910
306.040338
306.623827
308.082552
308.957786
309.541276
310.124765
308.374296
308.374296
306.040338
303.414634
302.247655
300.205441
295.537523
291.161351
285.326454
278.908068
272.197936
262.862101
255.568480
246.524390
235.438086
223.184803
212.973734
197.511257
184.382739
170.087242
154.333021
142.663227
125.450281
108.529081
89.565666
73.811445
59.807692
46.387430
29.174484
13.128518
-1.780534
-16.024809
-30.565840
-43.919847
-58.460878
-71.518130
-83.091603
-95.258588
-108.612595
-121.076336
-132.353053
-147.190840
-159.654580
-169.150763
-181.020992
-198.826336
-212.773855
-221.973282
-232.359733
-240.075382
-250.461832
-259.958015
-266.783397
-273.312023
-282.214695
-287.853053
-295.271947
-300.613550
-305.064885
-306.548664
-307.438931
-308.922710
-308.329198
-308.625954
-307.438931
-306.548664
-305.658397
-303.877863
-301.503817
-297.349237
-293.491412
-289.336832
-283.104962
-276.873092
-267.970420
-259.661260
-252.242366
-243.636450
-232.359733
-220.489504
-208.916031
-194.671756
-180.130725
-167.370229
-152.235687
-137.101145
-122.560115
-102.380725
-85.465649
-69.737595
-54.009542
-39.171756
-23.146947
-8.902672
7.585366
20.713884
36.176360
50.471857
63.600375
75.853659
89.565666
101.235460
112.613508
123.699812
137.995310
148.789869
161.334897
172.421201
184.382739
200.428705
213.557223
224.351782
233.979362
243.606942
251.192308
262.278612
268.988743
275.990619
284.451220
291.744841
298.746717
303.122889
304.873358
307.499062
309.249531
311.000000
309.249531
310.124765
308.957786
308.374296
306.915572
304.289869
303.122889
300.205441
295.245779
291.161351
285.034709
279.783302
271.906191
262.278612
254.984991
243.898687
234.271107
222.309568
211.223265
196.636023
183.799250
168.628518
154.041276
141.204503
125.158537
105.028143
89.273921
75.270169
