1.217754
1.330547
0.959941
0.831035
0.806865
0.951884
0.911601
0.758525
0.677959
0.645732
0.589336
0.565166
0.557109
0.492656
0.476543
0.516826
0.468486
0.436259
0.363750
0.291240
0.283183
0.250957
0.186504
0.202617
0.170390
0.194560
0.130107
0.138164
0.089824
0.130107
0.073711
0.089824
0.097880
0.081767
0.097880
0.138164
0.154277
0.162334
0.186504
0.226787
0.267070
0.194560
0.242900
0.250957
0.259013
0.283183
0.267070
0.267070
0.259013
0.275127
0.242900
0.202617
0.210673
0.267070
0.202617
0.186504
0.186504
0.154277
0.162334
0.186504
0.138164
0.097880
0.105937
0.113994
0.089824
0.065654
0.081767
-0.031026
-0.280782
-0.538594
-0.635274
-0.627217
-0.594991
-0.546651
-0.554707
-0.603047
-0.498311
-0.490254
-0.474141
-0.514424
-0.482198
-0.425801
-0.401631
-0.337178
-0.296895
-0.256612
-0.240498
-0.192159
-0.208272
-0.176045
-0.127705
-0.111592
-0.087422
-0.071309
-0.031026
-0.039082
-0.039082
-0.006856
-0.006856
-0.031026
0.025371
0.001201
-0.006856
0.001201
0.049541
0.017314
0.001201
-0.022969
0.001201
-0.031026
0.009257
-0.031026
-0.014912
-0.006856
-0.022969
-0.055196
-0.006856
-0.022969
0.009257
-0.014912
-0.031026
-0.014912
-0.031026
-0.055196
-0.031026
-0.022969
-0.039082
-0.022969
-0.055196
-0.047139
-0.031026
-0.031026
-0.063252
0.025371
0.250957
0.404033
0.468486
0.524882
0.677959
0.734355
0.686015
0.669902
0.581279
0.565166
0.597392
0.500713
0.387920
0.291240
0.210673
0.194560
0.154277
0.138164
0.122050
0.105937
0.081767
0.065654
0.017314
0.009257
-0.031026
-0.014912
-0.022969
-0.039082
-0.047139
0.017314
0.025371
0.009257
-0.006856
0.025371
0.017314
0.025371
0.025371
0.057597
-0.006856
0.033427
0.025371
0.017314
0.057597
0.017314
0.033427
0.065654
0.057597
0.049541
0.041484
0.049541
0.057597
0.057597
0.009257
0.065654
0.049541
0.065654
0.041484
0.017314
0.017314
-0.006856
0.041484
0.009257
0.009257
0.049541
-0.031026
-0.167989
-0.353291
-0.385518
-0.449971
-0.474141
-0.401631
-0.433858
-0.433858
-0.393575
-0.385518
-0.337178
-0.304952
-0.224385
-0.184102
-0.167989
-0.135762
-0.135762
-0.095479
-0.111592
-0.047139
-0.014912
-0.063252
-0.022969
0.025371
-0.022969
0.001201
0.001201
-0.006856
-0.006856
0.009257
-0.006856
0.017314
-0.022969
-0.006856
0.017314
0.009257
0.017314
0.001201
-0.006856
-0.014912
0.001201
-0.022969
-0.047139
-0.031026
-0.022969
0.025371
-0.014912
-0.047139
-0.031026
0.001201
-0.006856
-0.031026
-0.014912
-0.006856
0.017314
0.001201
-0.047139
-0.014912
-0.039082
-0.022969
-0.006856
-0.022969
-0.055196
-0.055196
-0.039082
0.097880
0.242900
0.331523
0.436259
0.428203
0.395976
0.379863
0.371806
0.331523
0.299297
0.242900
0.194560
0.186504
0.138164
0.097880
0.097880
0.073711
0.033427
0.017314
0.001201
-0.031026
-0.055196
-0.047139
-0.022969
0.017314
0.162334
0.218730
0.218730
0.194560
0.194560
0.146220
0.170390
0.089824
0.065654
0.057597
0.033427
0.057597
0.033427
0.017314
0.041484
0.033427
0.009257
0.025371
0.001201
0.041484
0.025371
0.033427
0.041484
0.033427
0.049541
0.041484
0.025371
0.041484
0.033427
0.033427
0.033427
0.001201
0.025371
0.041484
0.009257
0.009257
0.017314
-0.022969
0.001201
-0.095479
-0.232442
-0.401631
-0.409688
-0.425801
-0.401631
-0.385518
-0.401631
-0.385518
-0.345235
-0.288838
-0.224385
-0.208272
-0.159932
-0.151875
-0.119649
-0.103536
-0.063252
-0.055196
-0.063252
-0.022969
-0.022969
-0.014912
-0.006856
0.025371
0.017314
0.009257
0.025371
-0.006856
0.009257
-0.022969
-0.031026
-0.031026
-0.014912
-0.031026
-0.006856
0.009257
-0.031026
0.017314
0.009257
-0.006856
-0.031026
-0.014912
-0.006856
-0.014912
-0.031026
0.001201
0.001201
-0.047139
-0.039082
-0.031026
-0.022969
-0.031026
-0.039082
-0.006856
-0.039082
-0.022969
-0.039082
-0.014912
-0.039082
-0.047139
-0.014912
0.001201
-0.031026
0.041484
0.210673
0.339580
0.379863
0.371806
0.387920
0.371806
0.387920
0.363750
0.275127
0.218730
0.178447
0.138164
0.138164
0.089824
0.073711
0.057597
0.025371
0.033427
-0.022969
0.001201
-0.014912
-0.014912
-0.047139
-0.063252
-0.039082
-0.039082
-0.006856
-0.047139
0.017314
0.001201
0.009257
-0.014912
-0.014912
0.001201
0.009257
0.009257
0.025371
0.009257
0.001201
0.009257
0.025371
-0.006856
-0.022969
0.033427
0.017314
0.025371
0.017314
0.009257
0.009257
-0.006856
-0.006856
0.001201
-0.031026
0.105937
0.226787
0.267070
0.275127
0.226787
0.218730
0.154277
0.146220
0.162334
0.097880
0.065654
-0.103536
-0.329121
-0.385518
-0.401631
-0.385518
-0.393575
-0.369405
-0.361348
-0.304952
-0.256612
-0.200215
-0.176045
-0.135762
-0.119649
-0.111592
-0.087422
-0.095479
-0.039082
-0.031026
-0.039082
0.025371
0.001201
-0.006856
-0.006856
0.009257
-0.014912
-0.014912
-0.039082
-0.006856
-0.039082
-0.031026
0.001201
-0.031026
-0.006856
0.025371
-0.006856
-0.006856
-0.014912
-0.014912
0.017314
0.001201
0.009257
-0.022969
-0.047139
-0.039082
-0.031026
-0.047139
-0.014912
0.009257
0.001201
-0.022969
-0.022969
0.009257
-0.071309
-0.047139
-0.039082
-0.039082
-0.031026
-0.039082
-0.031026
-0.039082
-0.031026
-0.055196
0.001201
0.154277
0.283183
0.355693
0.315410
0.371806
0.347636
0.347636
0.363750
0.267070
0.210673
0.178447
0.170390
0.113994
0.097880
0.065654
0.057597
0.017314
0.001201
0.001201
0.001201
-0.022969
-0.022969
-0.022969
-0.055196
-0.031026
-0.031026
-0.047139
-0.039082
-0.031026
-0.039082
-0.014912
-0.031026
-0.014912
-0.022969
-0.022969
-0.006856
-0.006856
0.001201
0.009257
0.009257
0.025371
0.033427
0.025371
0.025371
0.025371
0.001201
-0.014912
0.017314
0.025371
0.009257
0.073711
0.025371
-0.014912
0.009257
-0.006856
0.001201
0.017314
-0.022969
0.001201
0.001201
-0.006856
0.017314
-0.006856
-0.039082
-0.176045
-0.304952
-0.393575
-0.409688
-0.393575
-0.369405
-0.409688
-0.361348
-0.361348
-0.248555
-0.184102
-0.176045
-0.159932
-0.127705
-0.071309
0.073711
0.170390
0.162334
0.146220
0.097880
0.041484
0.073711
0.025371
0.025371
0.065654
0.017314
-0.014912
0.001201
-0.006856
0.001201
0.009257
0.017314
-0.014912
0.017314
-0.022969
-0.039082
-0.022969
-0.022969
-0.039082
-0.014912
0.025371
-0.031026
-0.047139
-0.006856
-0.031026
-0.055196
-0.039082
-0.047139
-0.014912
-0.014912
-0.014912
-0.022969
-0.022969
-0.022969
-0.014912
-0.022969
-0.031026
-0.014912
-0.031026
0.001201
-0.014912
-0.014912
-0.006856
0.009257
0.170390
0.299297
0.331523
0.371806
0.371806
0.355693
0.379863
0.323466
0.315410
0.234843
0.186504
0.097880
0.105937
0.065654
0.065654
0.049541
0.049541
-0.014912
0.009257
-0.014912
-0.014912
-0.014912
-0.031026
-0.047139
-0.039082
-0.014912
-0.047139
-0.039082
-0.087422
-0.022969
-0.031026
-0.031026
-0.006856
-0.022969
0.001201
0.001201
0.025371
-0.031026
0.009257
0.001201
0.017314
-0.022969
0.017314
0.009257
0.025371
-0.014912
0.049541
0.001201
0.001201
0.001201
0.017314
0.065654
0.001201
0.001201
0.009257
0.025371
0.025371
0.033427
0.033427
-0.006856
0.009257
-0.006856
-0.031026
-0.047139
-0.200215
-0.288838
-0.377461
-0.385518
-0.385518
-0.393575
-0.401631
-0.393575
-0.329121
-0.288838
-0.224385
-0.159932
-0.135762
-0.111592
-0.095479
-0.087422
-0.055196
-0.047139
-0.006856
-0.006856
-0.006856
0.009257
-0.014912
-0.014912
-0.031026
-0.022969
0.017314
0.017314
-0.022969
0.017314
-0.006856
-0.006856
0.025371
-0.014912
-0.006856
-0.031026
-0.031026
0.009257
-0.039082
-0.022969
0.001201
-0.055196
0.033427
0.113994
0.202617
0.250957
0.186504
0.154277
0.105937
0.089824
0.049541
0.025371
0.009257
0.025371
-0.031026
0.001201
-0.006856
-0.022969
-0.014912
-0.022969
-0.031026
-0.031026
-0.039082
0.009257
0.146220
0.259013
0.395976
0.339580
0.379863
0.363750
0.363750
0.307353
0.283183
0.242900
0.162334
0.154277
0.089824
0.081767
0.073711
0.073711
0.033427
0.017314
-0.006856
-0.014912
-0.039082
-0.079366
-0.063252
-0.022969
-0.031026
-0.031026
-0.047139
-0.031026
0.025371
-0.022969
-0.031026
-0.022969
0.009257
-0.014912
-0.022969
-0.006856
-0.006856
0.001201
-0.006856
0.001201
-0.039082
-0.014912
0.017314
0.017314
0.017314
-0.014912
0.033427
-0.006856
0.025371
-0.014912
0.009257
-0.022969
-0.006856
0.025371
0.025371
-0.014912
0.025371
0.025371
0.009257
-0.014912
-0.014912
-0.006856
0.001201
-0.071309
-0.176045
-0.361348
-0.377461
-0.369405
-0.401631
-0.393575
-0.441914
-0.393575
-0.304952
-0.272725
-0.176045
-0.151875
-0.119649
-0.079366
-0.111592
-0.087422
-0.039082
-0.055196
-0.022969
-0.014912
0.009257
0.017314
-0.014912
0.001201
-0.014912
0.001201
0.017314
0.009257
0.001201
0.009257
-0.014912
-0.022969
0.041484
-0.006856
0.033427
-0.006856
-0.031026
-0.022969
-0.031026
0.009257
-0.039082
-0.022969
-0.014912
-0.006856
-0.031026
-0.022969
-0.022969
-0.022969
-0.022969
-0.055196
-0.014912
-0.014912
-0.014912
-0.014912
-0.055196
-0.055196
-0.063252
-0.022969
-0.039082
-0.055196
-0.063252
-0.055196
-0.063252
-0.006856
0.162334
0.331523
0.508769
0.597392
0.581279
0.589336
0.549052
0.460429
0.379863
0.291240
0.226787
0.170390
0.122050
0.081767
0.073711
0.073711
0.049541
-0.014912
-0.014912
0.009257
-0.047139
-0.022969
-0.031026
-0.014912
-0.063252
-0.063252
-0.047139
-0.039082
-0.006856
-0.055196
-0.055196
-0.006856
-0.014912
-0.006856
-0.022969
-0.022969
-0.014912
-0.006856
-0.006856
-0.014912
0.001201
0.017314
-0.006856
0.009257
-0.031026
-0.006856
0.009257
-0.006856
0.009257
-0.022969
0.025371
-0.014912
0.001201
0.025371
0.017314
0.001201
0.009257
0.049541
0.025371
0.025371
0.001201
0.009257
-0.031026
-0.047139
-0.232442
-0.353291
-0.369405
-0.409688
-0.385518
-0.409688
-0.401631
-0.361348
-0.304952
-0.232442
-0.192159
-0.176045
-0.135762
-0.151875
-0.079366
-0.079366
-0.071309
0.001201
-0.031026
-0.022969
0.009257
-0.047139
-0.039082
-0.006856
-0.006856
0.017314
0.001201
0.009257
-0.022969
0.001201
-0.014912
0.017314
-0.006856
-0.006856
-0.006856
0.001201
-0.031026
-0.031026
-0.022969
-0.022969
-0.014912
-0.031026
-0.006856
-0.031026
-0.039082
-0.039082
-0.022969
-0.047139
-0.031026
-0.022969
-0.022969
-0.031026
-0.055196
-0.022969
-0.063252
-0.063252
-0.022969
-0.014912
-0.022969
-0.047139
-0.031026
-0.047139
-0.047139
0.009257
0.146220
0.299297
0.331523
0.395976
0.347636
0.315410
0.355693
0.331523
0.226787
0.234843
0.130107
0.146220
0.122050
0.073711
0.049541
0.033427
0.049541
0.017314
-0.006856
-0.022969
-0.039082
-0.039082
-0.047139
-0.071309
-0.071309
-0.047139
-0.055196
-0.055196
-0.031026
-0.055196
-0.063252
0.025371
0.170390
0.226787
0.202617
0.202617
0.178447
0.138164
0.122050
0.049541
0.049541
0.033427
0.033427
0.001201
0.009257
0.001201
-0.006856
-0.022969
0.009257
-0.014912
-0.006856
-0.006856
0.033427
-0.014912
0.033427
0.001201
0.001201
0.025371
-0.006856
0.001201
0.001201
-0.006856
0.001201
-0.063252
-0.256612
-0.361348
-0.361348
-0.409688
-0.345235
-0.377461
-0.385518
-0.329121
-0.280782
-0.224385
-0.200215
-0.127705
-0.135762
-0.127705
-0.087422
-0.079366
-0.047139
-0.022969
-0.014912
-0.031026
-0.014912
-0.022969
0.009257
0.041484
0.001201
0.009257
-0.006856
0.001201
-0.022969
-0.031026
-0.022969
-0.031026
-0.006856
0.025371
-0.047139
-0.039082
0.001201
-0.014912
-0.022969
0.001201
0.001201
-0.022969
0.009257
-0.014912
-0.022969
-0.047139
0.009257
-0.022969
-0.047139
-0.055196
-0.022969
-0.047139
-0.047139
-0.031026
-0.047139
-0.014912
-0.006856
-0.031026
-0.047139
-0.006856
-0.039082
-0.031026
-0.014912
0.001201
0.226787
0.291240
0.363750
0.347636
0.387920
0.387920
0.363750
0.347636
0.259013
0.170390
0.146220
0.113994
0.089824
0.089824
0.065654
0.025371
0.009257
0.025371
-0.006856
-0.022969
-0.047139
-0.039082
-0.006856
-0.006856
-0.006856
-0.022969
0.009257
-0.031026
-0.006856
-0.055196
-0.047139
-0.039082
-0.047139
-0.039082
-0.055196
-0.014912
-0.055196
0.001201
0.017314
-0.014912
-0.014912
-0.022969
0.001201
0.001201
-0.039082
0.001201
-0.022969
0.025371
0.001201
-0.014912
-0.006856
-0.022969
0.001201
-0.022969
-0.031026
-0.014912
0.017314
0.194560
0.250957
0.234843
0.202617
0.186504
0.186504
0.073711
-0.184102
-0.304952
-0.345235
-0.385518
-0.337178
-0.329121
-0.409688
-0.329121
-0.264668
-0.256612
-0.143819
-0.143819
-0.111592
-0.111592
-0.119649
-0.063252
-0.047139
-0.006856
-0.047139
-0.031026
-0.031026
0.033427
0.033427
0.001201
0.009257
-0.006856
0.049541
-0.006856
-0.006856
0.001201
-0.006856
0.009257
-0.014912
-0.014912
0.001201
-0.031026
-0.014912
-0.014912
-0.006856
-0.039082
-0.047139
0.009257
-0.022969
-0.047139
0.001201
-0.006856
-0.055196
-0.022969
-0.031026
-0.014912
-0.055196
-0.031026
-0.006856
-0.047139
-0.014912
-0.039082
-0.047139
-0.039082
-0.079366
-0.022969
0.017314
-0.006856
-0.014912
0.025371
0.242900
0.331523
0.363750
0.355693
0.331523
0.379863
0.363750
0.307353
0.218730
0.186504
0.154277
0.130107
0.122050
0.073711
0.041484
0.057597
0.009257
-0.055196
-0.022969
-0.014912
-0.047139
-0.039082
-0.047139
-0.047139
-0.047139
-0.031026
-0.055196
-0.039082
0.001201
-0.022969
-0.014912
-0.014912
-0.014912
0.009257
-0.014912
-0.022969
-0.014912
-0.031026
-0.014912
-0.006856
-0.014912
0.009257
-0.014912
-0.014912
0.009257
0.009257
-0.022969
-0.014912
0.009257
0.033427
0.017314
0.017314
0.001201
0.001201
0.017314
-0.006856
0.009257
-0.014912
0.041484
-0.039082
-0.006856
-0.014912
0.049541
-0.119649
-0.288838
-0.377461
-0.409688
-0.393575
-0.369405
-0.385518
-0.441914
-0.353291
-0.272725
-0.248555
-0.176045
-0.208272
-0.127705
-0.127705
-0.111592
-0.087422
-0.103536
-0.079366
-0.022969
-0.022969
0.009257
0.122050
0.234843
0.218730
0.218730
0.194560
0.122050
0.113994
0.073711
0.049541
0.065654
0.017314
0.017314
-0.006856
0.001201
-0.014912
-0.006856
-0.006856
-0.006856
-0.022969
-0.022969
-0.006856
-0.014912
-0.047139
-0.022969
-0.071309
-0.006856
-0.039082
-0.071309
-0.022969
-0.047139
-0.031026
-0.039082
-0.039082
-0.039082
-0.047139
-0.031026
-0.047139
-0.047139
-0.047139
-0.039082
-0.006856
-0.047139
0.057597
0.226787
0.355693
0.387920
0.379863
0.331523
0.355693
0.323466
0.315410
0.242900
0.186504
0.130107
0.122050
0.113994
0.049541
0.065654
0.057597
-0.014912
0.001201
-0.031026
-0.022969
-0.014912
-0.039082
-0.055196
-0.055196
-0.039082
-0.079366
-0.055196
-0.031026
-0.014912
-0.047139
-0.047139
-0.055196
-0.039082
-0.022969
-0.006856
0.001201
0.001201
-0.031026
-0.022969
-0.031026
0.025371
-0.006856
-0.014912
-0.006856
-0.022969
-0.014912
-0.014912
-0.014912
0.001201
0.025371
0.017314
-0.031026
0.009257
0.009257
0.001201
0.001201
-0.006856
-0.014912
0.017314
-0.006856
0.017314
-0.022969
-0.039082
-0.119649
-0.280782
-0.369405
-0.409688
-0.377461
-0.417745
-0.409688
-0.409688
-0.369405
-0.288838
-0.264668
-0.232442
-0.151875
-0.143819
-0.111592
-0.103536
-0.095479
-0.071309
-0.071309
-0.047139
-0.039082
-0.022969
-0.031026
-0.006856
0.025371
-0.031026
0.001201
-0.006856
-0.006856
-0.014912
-0.022969
0.001201
-0.006856
-0.031026
-0.022969
-0.014912
-0.006856
-0.031026
-0.039082
-0.047139
-0.047139
-0.047139
-0.071309
-0.055196
-0.047139
0.089824
0.154277
0.154277
0.146220
0.097880
0.057597
0.041484
0.017314
0.033427
0.001201
-0.014912
-0.022969
-0.047139
-0.031026
-0.014912
-0.039082
-0.031026
-0.063252
-0.006856
0.073711
0.234843
0.347636
0.339580
0.331523
0.331523
0.339580
0.331523
0.299297
0.218730
0.178447
0.178447
0.097880
0.041484
0.049541
0.033427
0.025371
-0.014912
-0.006856
0.009257
-0.031026
-0.047139
-0.022969
-0.047139
-0.039082
-0.055196
-0.047139
-0.047139
-0.022969
-0.006856
-0.022969
-0.031026
-0.039082
-0.022969
-0.014912
-0.031026
-0.014912
0.001201
-0.014912
0.025371
0.001201
0.009257
0.009257
-0.006856
-0.014912
0.009257
-0.039082
0.025371
0.001201
0.009257
0.001201
0.017314
0.009257
0.001201
0.017314
0.017314
0.041484
-0.006856
-0.022969
0.017314
0.025371
-0.006856
0.017314
0.001201
-0.111592
-0.280782
-0.385518
-0.401631
-0.393575
-0.393575
-0.425801
-0.393575
-0.337178
-0.272725
-0.176045
-0.167989
-0.143819
-0.119649
-0.087422
-0.095479
-0.079366
-0.063252
-0.006856
-0.039082
-0.014912
-0.031026
-0.031026
-0.022969
0.001201
0.001201
0.033427
0.001201
0.009257
-0.031026
-0.047139
-0.006856
-0.006856
-0.022969
-0.039082
-0.006856
0.001201
0.025371
0.001201
-0.031026
-0.031026
0.001201
0.009257
-0.014912
-0.031026
-0.031026
-0.071309
-0.022969
-0.031026
-0.031026
-0.022969
-0.047139
-0.031026
-0.063252
-0.031026
-0.014912
-0.055196
-0.031026
-0.055196
-0.006856
-0.039082
-0.022969
-0.006856
-0.022969
0.097880
0.242900
0.347636
0.347636
0.339580
0.347636
0.363750
0.291240
0.283183
0.242900
0.218730
0.315410
0.347636
0.307353
0.267070
0.226787
0.162334
0.081767
0.057597
0.057597
0.001201
-0.006856
0.001201
-0.014912
-0.022969
-0.014912
-0.006856
-0.022969
-0.047139
-0.014912
-0.031026
-0.006856
-0.022969
-0.022969
-0.006856
-0.006856
-0.006856
0.033427
-0.031026
-0.006856
-0.006856
-0.022969
0.025371
0.017314
0.025371
0.001201
0.001201
0.025371
0.033427
0.001201
0.025371
0.025371
-0.006856
-0.014912
0.017314
0.001201
0.033427
-0.006856
0.025371
0.009257
0.025371
0.033427
0.001201
0.009257
-0.151875
-0.296895
-0.377461
-0.369405
-0.385518
-0.385518
-0.409688
-0.361348
-0.377461
-0.240498
-0.167989
-0.143819
-0.143819
-0.103536
-0.087422
-0.095479
-0.063252
-0.087422
-0.022969
-0.014912
0.017314
-0.006856
-0.031026
-0.014912
0.025371
-0.022969
-0.022969
0.025371
0.001201
-0.014912
0.001201
-0.014912
-0.047139
-0.022969
-0.055196
-0.006856
-0.022969
0.009257
-0.031026
-0.014912
-0.039082
-0.055196
-0.022969
-0.006856
0.017314
-0.014912
-0.022969
-0.014912
-0.014912
-0.031026
-0.022969
0.001201
-0.022969
-0.063252
-0.022969
-0.022969
-0.031026
-0.047139
-0.055196
-0.047139
-0.039082
-0.006856
-0.022969
-0.031026
0.130107
0.291240
0.339580
0.339580
0.347636
0.379863
0.355693
0.315410
0.283183
0.226787
0.194560
0.138164
0.073711
0.113994
0.105937
0.049541
0.009257
0.017314
0.009257
-0.031026
-0.014912
-0.022969
-0.006856
-0.047139
-0.071309
-0.031026
-0.047139
-0.055196
-0.039082
-0.039082
-0.022969
-0.006856
0.025371
-0.031026
-0.022969
-0.014912
0.130107
0.202617
0.194560
0.202617
0.178447
0.162334
0.105937
0.105937
0.089824
0.033427
0.105937
0.025371
0.025371
0.033427
0.025371
0.001201
-0.022969
-0.006856
0.009257
-0.006856
-0.006856
-0.014912
0.001201
0.049541
-0.014912
0.001201
0.017314
-0.014912
-0.127705
-0.345235
-0.385518
-0.409688
-0.385518
-0.401631
-0.385518
-0.369405
-0.329121
-0.272725
-0.208272
-0.167989
-0.151875
-0.095479
-0.103536
-0.055196
-0.087422
-0.047139
-0.022969
-0.014912
0.001201
0.033427
0.009257
0.001201
-0.006856
0.001201
-0.031026
0.025371
-0.022969
-0.014912
-0.022969
-0.022969
0.009257
-0.031026
-0.031026
-0.014912
-0.022969
-0.006856
-0.022969
-0.031026
-0.031026
-0.022969
0.001201
-0.063252
-0.047139
-0.014912
-0.006856
-0.022969
-0.063252
-0.039082
-0.031026
-0.039082
-0.039082
-0.022969
0.001201
-0.006856
-0.014912
-0.014912
-0.039082
-0.063252
-0.006856
-0.022969
-0.014912
0.025371
0.154277
0.307353
0.347636
0.371806
0.355693
0.347636
0.371806
0.355693
0.299297
0.202617
0.186504
0.154277
0.097880
0.081767
0.065654
0.049541
0.041484
0.001201
0.009257
-0.014912
-0.022969
-0.031026
-0.022969
-0.014912
-0.039082
-0.014912
0.009257
-0.006856
-0.039082
-0.039082
-0.022969
-0.014912
-0.014912
-0.055196
-0.022969
0.009257
-0.014912
0.001201
-0.006856
0.001201
-0.014912
0.001201
-0.006856
-0.014912
0.001201
0.001201
-0.022969
-0.006856
-0.014912
-0.006856
0.009257
-0.006856
-0.014912
-0.014912
-0.022969
-0.039082
0.001201
-0.014912
-0.031026
-0.006856
-0.055196
-0.031026
-0.039082
-0.071309
-0.079366
-0.151875
-0.143819
-0.135762
-0.151875
-0.208272
-0.288838
-0.272725
-0.272725
-0.216328
-0.200215
-0.151875
-0.119649
-0.111592
-0.063252
-0.079366
-0.022969
-0.063252
-0.039082
0.009257
-0.014912
0.001201
-0.039082
-0.006856
-0.022969
-0.006856
0.001201
0.001201
0.017314
-0.047139
-0.031026
0.001201
-0.006856
-0.022969
0.001201
0.001201
-0.014912
-0.022969
0.009257
-0.022969
-0.022969
-0.022969
-0.022969
-0.022969
-0.031026
-0.039082
-0.022969
-0.047139
-0.039082
-0.022969
-0.031026
-0.039082
-0.022969
-0.047139
-0.014912
-0.031026
0.009257
-0.055196
-0.055196
-0.055196
-0.039082
-0.014912
-0.014912
0.001201
0.146220
0.299297
0.371806
0.420146
0.371806
0.355693
0.339580
0.339580
0.291240
0.210673
0.186504
0.122050
0.081767
0.089824
0.073711
0.041484
0.057597
0.009257
0.009257
-0.039082
0.001201
-0.031026
-0.022969
-0.022969
-0.055196
-0.039082
-0.039082
-0.047139
0.001201
-0.006856
-0.063252
-0.022969
-0.047139
-0.022969
0.001201
-0.014912
-0.006856
0.001201
0.009257
-0.022969
-0.014912
-0.014912
0.017314
0.009257
-0.006856
0.009257
0.017314
0.009257
0.001201
0.001201
0.009257
-0.006856
0.025371
0.017314
-0.006856
0.009257
0.009257
-0.022969
-0.006856
0.001201
-0.006856
0.017314
0.017314
-0.031026
-0.192159
-0.361348
-0.377461
-0.401631
-0.361348
-0.433858
-0.377461
-0.321065
-0.321065
-0.256612
-0.200215
-0.184102
-0.143819
-0.111592
-0.055196
-0.079366
-0.071309
-0.055196
-0.047139
0.025371
-0.022969
-0.039082
-0.006856
0.081767
0.210673
0.194560
0.218730
0.178447
0.138164
0.097880
0.065654
0.041484
0.065654
0.001201
0.001201
-0.006856
-0.022969
-0.055196
-0.022969
-0.022969
-0.006856
-0.014912
-0.039082
-0.047139
-0.022969
-0.006856
-0.039082
-0.063252
-0.055196
-0.063252
-0.022969
-0.014912
-0.022969
-0.006856
-0.031026
0.009257
-0.006856
-0.031026
-0.055196
-0.031026
-0.006856
-0.006856
-0.014912
0.017314
0.170390
0.291240
0.331523
0.339580
0.323466
0.347636
0.363750
0.323466
0.291240
0.186504
0.170390
0.146220
0.073711
0.073711
0.081767
0.041484
0.049541
0.017314
0.025371
-0.006856
-0.014912
-0.022969
-0.022969
0.001201
0.017314
-0.022969
-0.022969
-0.022969
-0.039082
-0.047139
-0.039082
-0.047139
-0.006856
-0.014912
-0.022969
-0.022969
-0.022969
-0.014912
-0.022969
-0.006856
-0.006856
-0.014912
0.009257
-0.006856
0.001201
0.017314
0.001201
0.033427
-0.006856
0.001201
0.017314
0.025371
0.001201
0.009257
0.001201
0.017314
0.017314
0.001201
-0.014912
0.017314
0.017314
0.001201
0.001201
-0.071309
-0.208272
-0.345235
-0.417745
-0.393575
-0.377461
-0.385518
-0.377461
-0.377461
-0.288838
-0.240498
-0.159932
-0.159932
-0.119649
-0.103536
-0.071309
-0.071309
-0.095479
-0.071309
-0.055196
-0.022969
0.009257
-0.022969
-0.006856
0.009257
0.001201
0.009257
0.009257
0.001201
0.041484
0.001201
0.017314
-0.006856
-0.014912
-0.014912
0.017314
-0.039082
-0.047139
-0.047139
-0.031026
-0.039082
-0.047139
-0.031026
-0.022969
-0.014912
-0.047139
-0.022969
-0.055196
-0.055196
-0.055196
-0.031026
-0.014912
-0.063252
0.001201
0.130107
0.170390
0.226787
0.226787
0.186504
0.097880
0.089824
0.017314
0.041484
0.017314
0.049541
0.210673
0.315410
0.339580
0.339580
0.331523
0.371806
0.355693
0.315410
0.259013
0.242900
0.154277
0.113994
0.081767
0.073711
0.065654
0.025371
0.049541
0.049541
0.017314
-0.022969
-0.055196
-0.014912
0.001201
-0.031026
0.001201
-0.014912
-0.014912
-0.006856
-0.047139
-0.014912
-0.006856
-0.031026
-0.022969
-0.014912
0.009257
-0.014912
-0.022969
0.001201
-0.014912
-0.014912
-0.022969
-0.022969
0.001201
0.017314
-0.014912
0.009257
0.009257
0.025371
-0.006856
0.009257
-0.014912
0.017314
0.009257
0.025371
0.001201
-0.006856
0.001201
0.001201
0.017314
-0.014912
-0.031026
-0.014912
0.017314
-0.063252
-0.224385
-0.361348
-0.393575
-0.393575
-0.377461
-0.377461
-0.377461
-0.337178
-0.313008
-0.224385
-0.192159
-0.151875
-0.111592
-0.079366
-0.087422
-0.079366
-0.055196
-0.055196
-0.039082
-0.014912
-0.022969
-0.022969
-0.006856
-0.014912
0.017314
0.017314
0.001201
-0.006856
-0.047139
-0.014912
-0.022969
-0.014912
0.001201
-0.014912
-0.014912
-0.014912
-0.014912
-0.031026
-0.006856
0.009257
0.001201
0.001201
0.009257
-0.039082
0.009257
-0.055196
-0.014912
-0.031026
-0.039082
-0.006856
0.009257
-0.014912
-0.047139
-0.006856
-0.031026
-0.014912
-0.022969
-0.022969
-0.022969
-0.047139
-0.055196
-0.031026
-0.031026
0.017314
0.170390
0.307353
0.323466
0.371806
0.307353
0.291240
0.331523
0.259013
0.267070
0.202617
0.130107
0.130107
0.073711
0.089824
0.210673
0.259013
0.275127
0.218730
0.202617
0.154277
0.130107
0.081767
0.065654
0.017314
0.001201
-0.022969
-0.039082
-0.047139
-0.014912
-0.031026
-0.039082
-0.014912
-0.014912
-0.022969
-0.047139
-0.022969
-0.047139
-0.006856
-0.014912
-0.022969
-0.047139
-0.022969
0.001201
-0.031026
-0.022969
-0.022969
-0.006856
0.001201
0.001201
-0.006856
-0.006856
0.025371
-0.006856
-0.031026
0.001201
-0.006856
-0.006856
0.001201
0.033427
0.001201
-0.014912
-0.006856
-0.022969
-0.079366
-0.272725
-0.369405
-0.409688
-0.385518
-0.393575
-0.377461
-0.409688
-0.369405
-0.296895
-0.248555
-0.151875
-0.143819
-0.111592
-0.103536
-0.087422
-0.079366
-0.047139
-0.055196
-0.014912
-0.006856
-0.031026
-0.014912
-0.039082
0.009257
-0.039082
-0.006856
-0.006856
-0.031026
-0.014912
0.001201
-0.006856
-0.031026
-0.014912
-0.006856
-0.031026
0.001201
-0.022969
0.009257
-0.014912
-0.006856
-0.014912
-0.039082
-0.047139
-0.031026
-0.031026
-0.031026
-0.047139
-0.039082
-0.039082
-0.055196
-0.022969
-0.047139
-0.039082
-0.039082
-0.039082
-0.055196
-0.047139
-0.014912
-0.022969
-0.006856
-0.031026
-0.055196
-0.039082
0.057597
0.234843
0.315410
0.355693
0.331523
0.347636
0.347636
0.347636
0.307353
0.242900
0.178447
0.138164
0.122050
0.049541
0.049541
0.057597
0.033427
0.025371
-0.022969
-0.006856
-0.039082
0.001201
-0.047139
-0.022969
-0.039082
-0.031026
-0.031026
-0.022969
-0.022969
-0.047139
-0.039082
-0.031026
-0.031026
-0.031026
-0.039082
-0.055196
-0.039082
-0.063252
-0.022969
-0.031026
-0.039082
-0.039082
-0.031026
0.065654
0.186504
0.226787
0.234843
0.218730
0.178447
0.162334
0.138164
0.113994
0.057597
0.033427
0.049541
0.009257
0.009257
0.009257
-0.006856
0.009257
0.017314
-0.014912
-0.006856
0.025371
-0.119649
-0.280782
-0.353291
-0.409688
-0.417745
-0.401631
-0.425801
-0.369405
-0.353291
-0.264668
-0.224385
-0.208272
-0.151875
-0.095479
-0.119649
-0.071309
-0.047139
-0.039082
-0.031026
-0.022969
-0.014912
-0.006856
0.009257
-0.014912
-0.047139
-0.031026
-0.031026
0.001201
0.009257
-0.014912
-0.014912
-0.031026
-0.022969
-0.039082
0.001201
-0.006856
-0.031026
-0.014912
-0.006856
0.001201
-0.006856
-0.039082
-0.014912
-0.014912
-0.063252
-0.047139
-0.047139
-0.047139
-0.039082
-0.014912
-0.047139
-0.039082
-0.055196
-0.047139
-0.006856
-0.039082
-0.031026
-0.022969
-0.039082
-0.022969
-0.031026
-0.022969
-0.047139
-0.039082
0.073711
0.218730
0.315410
0.339580
0.331523
0.347636
0.387920
0.331523
0.283183
0.234843
0.194560
0.154277
0.105937
0.073711
0.057597
0.009257
0.033427
0.017314
0.033427
-0.014912
-0.039082
-0.047139
-0.039082
-0.014912
-0.047139
-0.039082
-0.039082
-0.039082
-0.006856
-0.014912
-0.022969
-0.047139
-0.047139
-0.022969
-0.039082
-0.055196
-0.031026
-0.039082
-0.022969
-0.031026
0.017314
0.001201
-0.006856
-0.022969
-0.031026
0.017314
-0.006856
0.001201
-0.014912
-0.031026
0.017314
-0.022969
-0.006856
0.017314
-0.014912
-0.014912
-0.014912
-0.031026
-0.031026
-0.039082
-0.022969
0.033427
-0.014912
-0.022969
-0.127705
-0.296895
-0.256612
-0.232442
-0.151875
-0.143819
-0.192159
-0.208272
-0.208272
-0.176045
-0.159932
-0.159932
-0.095479
-0.087422
-0.087422
-0.087422
-0.095479
-0.047139
-0.039082
-0.047139
-0.006856
-0.039082
-0.006856
0.001201
0.001201
0.025371
0.001201
-0.006856
-0.047139
-0.006856
-0.014912
-0.022969
-0.014912
-0.047139
-0.031026
-0.014912
-0.014912
0.009257
-0.022969
-0.014912
-0.022969
-0.031026
-0.014912
-0.031026
0.001201
-0.031026
-0.039082
-0.031026
-0.047139
-0.031026
-0.055196
-0.006856
-0.031026
-0.022969
-0.039082
-0.047139
-0.055196
-0.047139
-0.063252
-0.047139
0.009257
-0.031026
-0.022969
-0.014912
0.081767
0.259013
0.355693
0.363750
0.331523
0.323466
0.355693
0.363750
0.299297
0.242900
0.186504
0.146220
0.105937
0.105937
0.073711
0.057597
0.017314
0.009257
0.009257
0.001201
-0.006856
-0.039082
-0.022969
-0.031026
-0.063252
-0.047139
-0.055196
-0.047139
-0.047139
-0.014912
-0.031026
-0.039082
0.009257
-0.022969
-0.022969
-0.022969
0.009257
-0.039082
-0.006856
-0.014912
0.009257
0.009257
0.001201
-0.022969
0.025371
0.001201
0.009257
-0.006856
-0.014912
0.001201
-0.006856
-0.006856
0.001201
0.001201
-0.014912
0.001201
-0.014912
0.001201
0.009257
0.017314
0.009257
-0.014912
-0.031026
-0.014912
-0.143819
-0.272725
-0.361348
-0.369405
-0.369405
-0.369405
-0.385518
-0.377461
-0.272725
-0.272725
-0.248555
-0.192159
-0.127705
-0.111592
-0.127705
-0.071309
-0.111592
-0.079366
-0.031026
-0.055196
-0.006856
-0.022969
0.009257
-0.031026
-0.022969
-0.014912
-0.039082
-0.031026
-0.006856
-0.006856
-0.022969
0.009257
0.113994
0.186504
0.210673
0.202617
0.186504
0.146220
0.049541
0.041484
0.033427
0.009257
-0.006856
-0.022969
-0.022969
-0.031026
-0.031026
-0.014912
-0.014912
-0.039082
0.001201
-0.031026
-0.031026
-0.039082
-0.031026
-0.014912
-0.039082
