0.454362
0.212663
0.075700
0.526872
0.873308
0.736345
0.728288
0.639665
0.559099
0.583268
0.607438
0.542985
0.502702
0.462419
0.414079
0.430192
0.389909
0.357683
0.341569
0.357683
0.317399
0.277116
0.236833
0.196550
0.107927
0.148210
0.115983
0.124040
0.148210
0.107927
0.107927
0.043474
0.067643
0.075700
0.019304
-0.012923
-0.037093
-0.029036
-0.029036
-0.020980
-0.012923
-0.012923
0.027360
-0.012923
-0.012923
0.019304
0.011247
-0.012923
0.003190
0.035417
0.051530
0.019304
0.019304
0.043474
0.027360
0.011247
0.019304
0.027360
-0.012923
0.011247
-0.004866
0.067643
0.035417
0.011247
0.011247
0.003190
0.027360
0.027360
-0.004866
-0.012923
0.011247
-0.037093
-0.254622
-0.464095
-0.641341
-0.697737
-0.641341
-0.609114
-0.625228
-0.584944
-0.609114
-0.512435
-0.488265
-0.520491
-0.520491
-0.480208
-0.423812
-0.343245
-0.286849
-0.270735
-0.198226
-0.198226
-0.182112
-0.149886
-0.165999
-0.141829
-0.141829
-0.101546
-0.037093
-0.037093
-0.020980
-0.004866
0.003190
0.019304
0.003190
0.011247
-0.020980
-0.012923
0.011247
-0.029036
-0.004866
-0.004866
-0.012923
-0.012923
-0.037093
-0.029036
-0.037093
-0.045150
-0.045150
-0.045150
0.035417
0.164323
0.220720
0.236833
0.228776
0.172380
0.148210
0.115983
0.140153
0.067643
0.067643
0.011247
-0.004866
-0.012923
0.003190
0.019304
0.067643
0.333513
0.526872
0.583268
0.599382
0.510759
0.542985
0.534929
0.510759
0.438249
0.446306
0.446306
0.438249
0.373796
0.357683
0.285173
0.212663
0.188493
0.140153
0.188493
0.083757
0.099870
0.075700
0.043474
0.051530
0.019304
-0.012923
-0.020980
-0.029036
-0.012923
-0.037093
-0.029036
-0.045150
-0.020980
-0.020980
-0.037093
-0.037093
-0.012923
-0.012923
-0.012923
-0.012923
-0.061263
-0.029036
-0.029036
0.027360
0.043474
-0.029036
0.011247
-0.020980
0.027360
0.027360
0.027360
0.035417
0.003190
0.011247
0.019304
-0.004866
0.011247
-0.020980
-0.004866
0.027360
0.003190
0.011247
0.019304
0.003190
-0.012923
-0.190169
-0.383528
-0.464095
-0.520491
-0.520491
-0.496321
-0.488265
-0.456038
-0.423812
-0.447982
-0.439925
-0.407698
-0.351302
-0.254622
-0.238509
-0.182112
-0.182112
-0.117659
-0.125716
-0.125716
-0.101546
-0.061263
-0.069319
-0.012923
-0.037093
-0.029036
-0.037093
0.003190
0.011247
0.035417
0.027360
0.035417
0.003190
0.011247
0.035417
-0.029036
0.051530
0.011247
-0.012923
0.019304
-0.012923
0.003190
-0.004866
-0.020980
-0.004866
-0.012923
-0.061263
0.003190
-0.053206
-0.029036
-0.045150
-0.045150
-0.037093
-0.037093
-0.012923
-0.037093
-0.053206
0.003190
-0.061263
-0.020980
-0.037093
-0.029036
-0.037093
-0.012923
-0.029036
0.027360
0.140153
0.269059
0.365739
0.422136
0.397966
0.397966
0.373796
0.397966
0.430192
0.510759
0.559099
0.470475
0.430192
0.373796
0.293229
0.261003
0.244890
0.236833
0.156267
0.140153
0.083757
0.003190
0.003190
-0.004866
0.003190
-0.037093
-0.029036
-0.020980
-0.053206
-0.045150
0.003190
-0.020980
-0.037093
-0.012923
0.003190
0.035417
-0.012923
-0.020980
-0.029036
-0.004866
0.011247
-0.020980
0.011247
0.019304
-0.004866
0.003190
-0.004866
-0.004866
0.019304
-0.004866
0.003190
0.035417
0.027360
0.035417
-0.004866
0.011247
0.011247
-0.012923
0.003190
0.019304
0.027360
0.003190
-0.012923
0.011247
-0.149886
-0.278792
-0.431868
-0.456038
-0.464095
-0.391585
-0.391585
-0.464095
-0.415755
-0.367415
-0.335189
-0.254622
-0.222396
-0.157942
-0.157942
-0.085433
-0.117659
-0.069319
-0.101546
-0.069319
-0.029036
-0.020980
0.043474
0.003190
-0.004866
0.019304
0.003190
-0.004866
-0.012923
-0.012923
0.003190
0.019304
0.027360
0.003190
-0.029036
0.011247
-0.004866
0.035417
0.043474
-0.012923
-0.029036
-0.020980
-0.029036
-0.037093
0.003190
-0.012923
-0.029036
-0.053206
0.019304
-0.004866
0.003190
-0.029036
-0.020980
-0.037093
-0.037093
-0.029036
-0.037093
-0.037093
-0.004866
-0.020980
-0.045150
-0.037093
0.003190
-0.029036
0.075700
0.285173
0.381852
0.397966
0.422136
0.373796
0.397966
0.406022
0.381852
0.365739
0.333513
0.188493
0.188493
0.164323
0.124040
0.091813
0.067643
0.091813
0.027360
0.019304
-0.004866
-0.045150
-0.012923
-0.053206
-0.029036
-0.012923
-0.061263
-0.061263
-0.029036
-0.053206
-0.053206
0.035417
0.148210
0.220720
0.204606
0.220720
0.164323
0.132097
0.107927
0.043474
0.035417
0.067643
-0.004866
0.011247
0.003190
0.011247
0.035417
-0.004866
0.035417
0.027360
0.003190
0.019304
0.003190
0.011247
0.027360
0.011247
0.003190
0.011247
-0.020980
-0.012923
0.003190
0.003190
-0.004866
-0.029036
-0.045150
-0.238509
-0.375472
-0.464095
-0.423812
-0.407698
-0.423812
-0.423812
-0.415755
-0.375472
-0.311019
-0.198226
-0.198226
-0.157942
-0.125716
-0.149886
-0.109603
-0.117659
-0.045150
-0.020980
-0.004866
-0.020980
-0.004866
0.011247
0.019304
0.027360
-0.012923
-0.012923
-0.004866
0.011247
-0.004866
0.011247
-0.012923
0.003190
0.003190
-0.020980
-0.004866
-0.029036
-0.004866
-0.029036
0.003190
-0.020980
0.019304
-0.012923
-0.004866
-0.053206
-0.029036
-0.045150
-0.037093
-0.012923
-0.020980
-0.045150
-0.020980
-0.020980
-0.053206
-0.045150
-0.029036
-0.037093
-0.029036
0.003190
-0.061263
-0.061263
-0.029036
-0.004866
0.011247
0.228776
0.341569
0.357683
0.406022
0.373796
0.373796
0.365739
0.341569
0.341569
0.277116
0.220720
0.188493
0.132097
0.091813
0.083757
0.075700
0.027360
-0.004866
0.019304
-0.004866
-0.037093
-0.061263
-0.045150
-0.045150
-0.037093
-0.012923
-0.045150
-0.012923
-0.020980
-0.020980
-0.029036
-0.029036
-0.012923
-0.037093
-0.004866
0.011247
0.003190
0.019304
0.011247
-0.012923
-0.029036
-0.020980
-0.012923
0.019304
-0.037093
-0.012923
0.019304
-0.020980
0.019304
0.011247
-0.012923
-0.004866
-0.020980
-0.012923
-0.020980
-0.004866
-0.012923
-0.020980
-0.012923
0.011247
0.099870
0.204606
0.236833
0.188493
0.027360
-0.182112
-0.286849
-0.278792
-0.327132
-0.351302
-0.375472
-0.375472
-0.335189
-0.302962
-0.214339
-0.182112
-0.157942
-0.157942
-0.125716
-0.133773
-0.101546
-0.053206
-0.045150
-0.020980
0.011247
-0.012923
0.027360
-0.012923
0.003190
-0.029036
0.011247
0.043474
-0.004866
-0.012923
0.011247
0.003190
0.003190
-0.020980
0.019304
0.019304
-0.012923
0.003190
0.019304
-0.012923
-0.045150
-0.045150
-0.020980
-0.053206
-0.012923
-0.012923
-0.004866
-0.012923
-0.037093
-0.053206
-0.045150
-0.045150
-0.045150
-0.020980
-0.029036
-0.029036
-0.012923
-0.053206
-0.029036
-0.045150
-0.020980
-0.012923
-0.012923
0.027360
0.180436
0.325456
0.406022
0.357683
0.406022
0.381852
0.357683
0.357683
0.381852
0.236833
0.212663
0.148210
0.132097
0.164323
0.083757
0.091813
0.027360
0.027360
0.027360
-0.004866
-0.029036
-0.012923
-0.012923
-0.020980
-0.012923
-0.004866
-0.045150
0.011247
0.003190
-0.020980
0.027360
-0.004866
-0.004866
0.027360
-0.012923
-0.012923
-0.012923
0.003190
0.011247
0.003190
0.011247
0.019304
-0.004866
-0.020980
-0.029036
-0.020980
0.011247
0.011247
-0.004866
0.011247
0.051530
0.043474
0.019304
0.011247
0.035417
-0.020980
-0.020980
-0.020980
0.011247
0.011247
0.011247
0.011247
0.035417
-0.061263
-0.206282
-0.359358
-0.431868
-0.407698
-0.367415
-0.383528
-0.399642
-0.367415
-0.335189
-0.311019
-0.214339
-0.165999
-0.165999
-0.141829
-0.117659
-0.117659
-0.101546
-0.069319
-0.053206
-0.053206
-0.045150
0.043474
0.172380
0.228776
0.252946
0.212663
0.196550
0.188493
0.164323
0.124040
0.091813
0.043474
0.035417
0.027360
-0.012923
-0.020980
0.011247
-0.004866
-0.004866
-0.004866
-0.037093
-0.045150
0.011247
0.019304
-0.004866
0.019304
-0.053206
-0.029036
-0.012923
-0.004866
-0.029036
0.003190
-0.020980
-0.020980
-0.012923
0.003190
-0.029036
-0.004866
-0.045150
-0.012923
-0.045150
-0.020980
-0.020980
0.027360
0.180436
0.325456
0.389909
0.406022
0.381852
0.406022
0.381852
0.397966
0.325456
0.309343
0.244890
0.172380
0.115983
0.075700
0.075700
0.067643
0.035417
0.027360
-0.012923
0.019304
-0.029036
-0.012923
-0.020980
-0.037093
-0.029036
-0.037093
-0.012923
0.011247
-0.037093
-0.012923
-0.029036
0.011247
0.003190
-0.037093
-0.012923
0.003190
0.003190
-0.004866
-0.004866
0.011247
0.003190
-0.004866
0.011247
-0.004866
-0.004866
0.019304
0.003190
0.003190
-0.012923
-0.004866
0.003190
0.011247
-0.012923
0.003190
0.011247
0.019304
0.019304
0.011247
0.011247
0.019304
0.027360
0.011247
-0.012923
-0.037093
-0.214339
-0.319075
-0.447982
-0.447982
-0.447982
-0.431868
-0.415755
-0.439925
-0.375472
-0.302962
-0.222396
-0.165999
-0.125716
-0.125716
-0.085433
-0.093489
-0.069319
-0.029036
-0.029036
-0.012923
-0.029036
0.027360
-0.004866
-0.012923
-0.004866
-0.004866
0.011247
0.019304
-0.004866
0.003190
-0.004866
-0.004866
0.019304
-0.020980
-0.037093
-0.037093
-0.004866
-0.037093
-0.012923
-0.061263
-0.020980
-0.029036
-0.037093
-0.004866
-0.045150
-0.045150
-0.053206
-0.069319
-0.053206
0.027360
0.140153
0.212663
0.220720
0.236833
0.172380
0.156267
0.115983
0.075700
0.067643
0.067643
0.019304
0.027360
-0.053206
0.067643
0.188493
0.317399
0.389909
0.406022
0.389909
0.381852
0.365739
0.397966
0.333513
0.244890
0.196550
0.180436
0.164323
0.091813
0.107927
0.051530
0.043474
0.027360
-0.004866
0.003190
-0.045150
-0.037093
-0.045150
-0.020980
-0.029036
-0.037093
-0.029036
-0.037093
0.003190
-0.037093
-0.012923
-0.029036
-0.020980
0.011247
-0.004866
-0.020980
-0.029036
-0.029036
0.011247
-0.004866
0.019304
0.019304
-0.012923
0.003190
0.011247
0.011247
0.003190
0.003190
0.019304
0.003190
0.019304
-0.004866
0.035417
0.051530
0.011247
-0.004866
0.003190
0.011247
0.003190
0.043474
0.011247
0.003190
-0.004866
-0.093489
-0.230452
-0.335189
-0.431868
-0.423812
-0.399642
-0.431868
-0.391585
-0.415755
-0.367415
-0.278792
-0.182112
-0.190169
-0.165999
-0.109603
-0.093489
-0.093489
-0.061263
-0.037093
-0.045150
-0.045150
0.019304
0.011247
0.003190
0.019304
0.011247
0.019304
-0.004866
-0.012923
0.003190
0.003190
-0.012923
0.019304
0.003190
-0.004866
-0.029036
-0.020980
-0.037093
-0.020980
-0.045150
-0.004866
0.027360
-0.020980
-0.012923
-0.029036
-0.020980
-0.045150
-0.004866
-0.020980
-0.029036
-0.004866
-0.020980
-0.029036
-0.012923
-0.020980
-0.037093
-0.020980
-0.029036
-0.029036
-0.029036
-0.012923
-0.045150
-0.029036
-0.037093
0.051530
0.220720
0.341569
0.365739
0.381852
0.357683
0.325456
0.341569
0.341569
0.341569
0.414079
0.414079
0.422136
0.325456
0.293229
0.252946
0.212663
0.188493
0.140153
0.091813
0.059587
-0.029036
-0.012923
-0.045150
-0.020980
0.027360
-0.037093
-0.045150
-0.029036
-0.037093
0.011247
-0.012923
-0.029036
-0.004866
-0.020980
-0.029036
0.003190
-0.012923
-0.012923
-0.012923
0.003190
-0.012923
0.027360
-0.012923
-0.012923
-0.004866
0.003190
0.011247
-0.020980
0.011247
0.019304
-0.004866
0.011247
0.003190
0.011247
0.011247
-0.020980
0.027360
0.011247
-0.004866
0.027360
-0.004866
0.019304
0.003190
-0.077376
-0.230452
-0.407698
-0.431868
-0.423812
-0.391585
-0.367415
-0.407698
-0.343245
-0.375472
-0.270735
-0.190169
-0.198226
-0.149886
-0.109603
-0.125716
-0.109603
-0.093489
-0.037093
-0.037093
-0.037093
-0.012923
-0.020980
0.011247
0.019304
-0.012923
0.027360
0.019304
-0.004866
0.003190
-0.004866
-0.020980
0.027360
0.003190
0.003190
0.003190
-0.004866
0.035417
0.019304
-0.045150
-0.004866
-0.012923
0.003190
-0.020980
-0.037093
-0.029036
-0.029036
-0.020980
-0.004866
-0.012923
-0.020980
-0.020980
-0.012923
-0.012923
-0.020980
-0.020980
-0.029036
-0.020980
-0.029036
-0.012923
-0.029036
-0.045150
-0.037093
-0.004866
0.019304
0.204606
0.357683
0.414079
0.406022
0.365739
0.357683
0.365739
0.325456
0.309343
0.261003
0.204606
0.172380
0.099870
0.091813
0.107927
0.083757
0.075700
0.003190
-0.012923
-0.020980
-0.020980
-0.029036
-0.029036
-0.045150
-0.029036
-0.037093
-0.045150
-0.029036
-0.004866
-0.012923
-0.012923
-0.004866
-0.061263
-0.004866
-0.012923
-0.037093
-0.012923
-0.053206
0.051530
0.212663
0.269059
0.244890
0.212663
0.220720
0.204606
0.180436
0.115983
0.107927
0.035417
0.035417
0.035417
0.011247
0.019304
0.019304
0.027360
0.043474
0.011247
0.011247
0.011247
-0.004866
0.011247
0.051530
-0.020980
-0.053206
-0.254622
-0.407698
-0.447982
-0.456038
-0.423812
-0.431868
-0.399642
-0.383528
-0.359358
-0.294905
-0.238509
-0.182112
-0.141829
-0.125716
-0.117659
-0.093489
-0.069319
-0.061263
-0.045150
0.035417
-0.045150
0.011247
0.003190
-0.004866
-0.004866
-0.012923
0.027360
0.035417
0.011247
0.003190
-0.037093
-0.029036
-0.012923
-0.020980
0.011247
-0.004866
-0.004866
0.003190
-0.037093
-0.053206
-0.004866
-0.020980
-0.020980
-0.029036
-0.045150
-0.045150
-0.012923
-0.037093
-0.029036
-0.020980
-0.012923
-0.037093
-0.029036
-0.029036
-0.020980
-0.037093
-0.029036
-0.061263
-0.045150
-0.020980
-0.053206
-0.029036
-0.012923
0.043474
0.180436
0.309343
0.397966
0.406022
0.389909
0.341569
0.357683
0.317399
0.333513
0.220720
0.196550
0.164323
0.140153
0.091813
0.075700
0.051530
0.043474
0.011247
-0.004866
-0.004866
-0.029036
-0.012923
-0.012923
-0.037093
-0.037093
-0.029036
-0.004866
-0.012923
-0.045150
0.011247
0.011247
-0.029036
-0.037093
-0.045150
-0.053206
-0.029036
-0.004866
0.011247
-0.004866
0.003190
-0.004866
-0.029036
-0.012923
0.043474
-0.012923
0.027360
0.003190
0.027360
-0.004866
0.003190
0.011247
-0.020980
-0.012923
0.003190
0.003190
-0.020980
-0.004866
-0.012923
0.003190
-0.004866
-0.037093
-0.037093
-0.020980
-0.020980
-0.045150
-0.117659
-0.174056
-0.206282
-0.190169
-0.238509
-0.278792
-0.270735
-0.238509
-0.230452
-0.157942
-0.182112
-0.149886
-0.117659
-0.109603
-0.109603
-0.077376
-0.053206
-0.029036
0.027360
-0.012923
0.003190
0.003190
0.019304
0.043474
0.011247
-0.012923
-0.004866
0.019304
0.011247
-0.037093
0.019304
0.003190
-0.012923
-0.012923
-0.004866
-0.020980
0.011247
0.003190
-0.045150
-0.004866
-0.012923
-0.004866
-0.004866
-0.029036
0.011247
-0.012923
-0.053206
-0.029036
-0.037093
-0.029036
-0.045150
-0.029036
-0.004866
-0.012923
-0.053206
-0.012923
-0.029036
-0.053206
-0.012923
-0.029036
-0.053206
-0.037093
0.051530
0.252946
0.325456
0.373796
0.381852
0.365739
0.357683
0.381852
0.365739
0.301286
0.244890
0.196550
0.188493
0.107927
0.083757
0.083757
0.043474
0.043474
-0.004866
-0.004866
-0.012923
-0.029036
-0.029036
-0.037093
-0.045150
-0.053206
-0.045150
-0.037093
-0.037093
-0.029036
-0.012923
-0.037093
-0.012923
-0.037093
0.003190
0.011247
-0.012923
0.019304
-0.004866
-0.012923
-0.020980
-0.037093
0.019304
-0.020980
-0.004866
-0.004866
0.035417
-0.020980
-0.045150
-0.020980
-0.004866
0.027360
-0.004866
0.011247
-0.004866
0.019304
0.027360
0.011247
0.019304
0.003190
0.003190
0.011247
-0.004866
-0.004866
-0.101546
-0.286849
-0.391585
-0.431868
-0.391585
-0.423812
-0.367415
-0.391585
-0.391585
-0.319075
-0.246566
-0.246566
-0.174056
-0.174056
-0.133773
-0.133773
-0.109603
-0.109603
-0.053206
-0.077376
0.019304
-0.004866
0.003190
-0.029036
-0.037093
-0.012923
-0.037093
-0.012923
0.035417
0.140153
0.228776
0.236833
0.196550
0.220720
0.180436
0.148210
0.156267
0.115983
0.083757
0.043474
-0.004866
0.003190
0.011247
-0.012923
0.003190
-0.020980
0.027360
-0.012923
-0.020980
-0.029036
-0.029036
-0.029036
-0.029036
-0.069319
0.011247
-0.004866
-0.045150
-0.037093
-0.037093
-0.037093
-0.053206
-0.037093
-0.037093
-0.045150
0.051530
0.236833
0.357683
0.381852
0.357683
0.333513
0.341569
0.341569
0.341569
0.309343
0.252946
0.180436
0.164323
0.107927
0.107927
0.059587
0.051530
0.043474
0.019304
0.019304
-0.029036
-0.029036
-0.045150
-0.029036
-0.029036
-0.053206
-0.012923
-0.004866
-0.061263
-0.037093
-0.020980
-0.029036
-0.029036
-0.020980
-0.004866
-0.037093
-0.012923
-0.037093
-0.020980
-0.012923
-0.045150
-0.045150
0.003190
-0.012923
-0.012923
-0.004866
0.003190
0.003190
0.011247
0.019304
-0.012923
0.011247
0.027360
0.043474
-0.004866
0.019304
0.003190
-0.004866
0.003190
0.043474
0.051530
-0.004866
-0.004866
0.019304
-0.077376
-0.278792
-0.391585
-0.447982
-0.415755
-0.399642
-0.383528
-0.415755
-0.383528
-0.351302
-0.262679
-0.214339
-0.182112
-0.133773
-0.109603
-0.077376
-0.037093
-0.077376
-0.053206
-0.004866
-0.029036
0.019304
0.011247
0.003190
-0.020980
0.011247
0.011247
-0.004866
-0.037093
0.003190
-0.029036
0.003190
-0.020980
-0.004866
-0.020980
-0.012923
-0.045150
-0.020980
-0.020980
-0.045150
-0.020980
-0.037093
-0.061263
-0.020980
-0.012923
-0.053206
-0.037093
-0.069319
-0.029036
-0.029036
-0.020980
-0.012923
0.132097
0.220720
0.180436
0.188493
0.172380
0.132097
0.124040
0.059587
0.011247
-0.004866
-0.037093
-0.029036
0.083757
0.269059
0.365739
0.422136
0.414079
0.422136
0.365739
0.365739
0.333513
0.301286
0.236833
0.164323
0.148210
0.099870
0.067643
0.051530
0.067643
0.027360
-0.020980
-0.029036
-0.029036
-0.037093
-0.053206
-0.045150
-0.045150
-0.053206
-0.020980
-0.045150
-0.020980
-0.037093
-0.020980
-0.037093
-0.029036
-0.020980
-0.020980
0.011247
-0.029036
-0.004866
-0.004866
-0.004866
-0.004866
0.019304
-0.029036
-0.029036
-0.012923
-0.012923
0.027360
0.003190
0.003190
0.019304
-0.012923
0.003190
0.003190
-0.012923
0.035417
-0.004866
0.003190
-0.012923
0.003190
0.019304
-0.020980
-0.004866
-0.020980
0.011247
-0.109603
-0.294905
-0.431868
-0.415755
-0.447982
-0.415755
-0.391585
-0.423812
-0.383528
-0.335189
-0.262679
-0.206282
-0.165999
-0.141829
-0.117659
-0.125716
-0.093489
-0.085433
-0.053206
-0.012923
-0.004866
0.003190
0.003190
-0.012923
-0.020980
-0.012923
-0.020980
-0.012923
-0.004866
0.011247
-0.004866
0.011247
0.011247
0.019304
0.019304
-0.029036
0.003190
-0.012923
0.003190
-0.012923
0.003190
-0.037093
-0.020980
-0.004866
-0.037093
-0.012923
-0.053206
-0.037093
-0.012923
-0.037093
-0.012923
0.003190
0.011247
-0.012923
-0.029036
-0.020980
-0.029036
-0.045150
-0.061263
-0.053206
-0.037093
-0.045150
-0.020980
-0.053206
0.067643
0.252946
0.406022
0.414079
0.381852
0.389909
0.373796
0.381852
0.325456
0.293229
0.236833
0.148210
0.107927
0.051530
0.059587
0.043474
0.011247
0.107927
0.188493
0.236833
0.212663
0.180436
0.164323
0.156267
0.083757
0.067643
0.059587
0.051530
0.011247
-0.012923
-0.020980
-0.012923
-0.020980
-0.037093
-0.045150
-0.029036
-0.020980
-0.012923
-0.020980
-0.020980
-0.012923
-0.020980
-0.012923
0.003190
0.011247
0.027360
0.019304
0.035417
0.011247
0.003190
0.003190
0.011247
0.027360
-0.012923
0.011247
-0.029036
-0.004866
0.003190
0.003190
-0.004866
0.011247
-0.012923
0.003190
-0.020980
-0.101546
-0.302962
-0.391585
-0.447982
-0.431868
-0.391585
-0.399642
-0.399642
-0.383528
-0.319075
-0.270735
-0.222396
-0.182112
-0.141829
-0.101546
-0.109603
-0.101546
-0.069319
-0.053206
-0.004866
-0.020980
-0.004866
-0.004866
-0.012923
0.019304
-0.004866
-0.012923
-0.012923
0.011247
-0.020980
-0.012923
-0.004866
0.011247
0.011247
-0.004866
-0.029036
-0.020980
-0.012923
-0.012923
-0.020980
-0.053206
-0.012923
-0.012923
0.019304
-0.029036
-0.020980
-0.037093
-0.012923
-0.020980
-0.053206
-0.004866
-0.020980
-0.029036
-0.012923
0.011247
-0.004866
-0.020980
-0.045150
-0.004866
-0.029036
-0.020980
-0.020980
-0.045150
-0.037093
0.091813
0.244890
0.381852
0.365739
0.365739
0.389909
0.373796
0.373796
0.333513
0.309343
0.220720
0.188493
0.180436
0.099870
0.099870
0.083757
0.043474
0.019304
0.043474
0.035417
0.035417
-0.004866
-0.020980
-0.020980
-0.029036
-0.045150
-0.029036
-0.053206
-0.053206
-0.045150
-0.053206
-0.020980
-0.004866
-0.012923
-0.029036
-0.037093
-0.020980
-0.004866
-0.037093
-0.037093
-0.045150
-0.037093
0.035417
0.188493
0.252946
0.244890
0.236833
0.188493
0.156267
0.067643
0.059587
0.075700
0.067643
-0.004866
0.019304
0.003190
-0.004866
-0.012923
0.003190
0.011247
-0.004866
-0.004866
-0.029036
-0.029036
-0.101546
-0.302962
-0.415755
-0.447982
-0.423812
-0.399642
-0.367415
-0.391585
-0.391585
-0.359358
-0.278792
-0.198226
-0.165999
-0.133773
-0.133773
-0.109603
-0.053206
-0.085433
-0.020980
-0.020980
-0.012923
0.027360
-0.004866
0.011247
-0.012923
0.003190
0.011247
-0.029036
0.035417
0.011247
0.011247
-0.004866
0.003190
-0.053206
-0.004866
0.035417
-0.029036
-0.020980
-0.020980
-0.004866
-0.012923
-0.004866
-0.029036
-0.053206
-0.045150
-0.020980
-0.045150
-0.037093
-0.029036
-0.045150
-0.037093
-0.012923
-0.004866
-0.037093
-0.020980
-0.061263
-0.053206
-0.045150
-0.053206
-0.037093
-0.020980
-0.037093
-0.012923
-0.045150
0.099870
0.293229
0.357683
0.406022
0.381852
0.389909
0.365739
0.357683
0.341569
0.285173
0.252946
0.204606
0.099870
0.124040
0.083757
0.051530
0.035417
0.051530
0.043474
0.019304
-0.029036
-0.020980
-0.004866
-0.029036
-0.045150
-0.004866
-0.029036
-0.029036
-0.029036
-0.037093
-0.012923
-0.029036
-0.029036
-0.012923
-0.020980
-0.029036
-0.012923
-0.037093
-0.037093
-0.029036
-0.004866
-0.012923
-0.004866
0.003190
0.003190
-0.004866
-0.004866
-0.012923
-0.029036
-0.012923
0.027360
-0.012923
-0.012923
-0.012923
0.003190
0.003190
-0.004866
0.003190
0.011247
-0.029036
-0.012923
-0.004866
-0.020980
-0.029036
-0.165999
-0.311019
-0.456038
-0.447982
-0.439925
-0.415755
-0.367415
-0.230452
-0.165999
-0.077376
-0.029036
-0.004866
0.027360
0.003190
0.019304
-0.029036
-0.029036
-0.004866
0.011247
0.011247
0.019304
-0.004866
-0.004866
0.003190
-0.012923
0.003190
0.019304
0.003190
0.019304
-0.012923
0.019304
0.003190
0.019304
0.019304
-0.004866
-0.012923
-0.004866
-0.037093
-0.012923
-0.004866
-0.004866
-0.020980
-0.020980
-0.020980
-0.020980
-0.029036
-0.012923
-0.029036
-0.020980
-0.004866
-0.004866
-0.004866
-0.045150
-0.029036
-0.045150
-0.037093
-0.020980
-0.020980
-0.029036
0.027360
-0.004866
-0.037093
-0.037093
-0.037093
0.107927
0.269059
0.357683
0.397966
0.422136
0.357683
0.373796
0.389909
0.365739
0.301286
0.228776
0.180436
0.148210
0.099870
0.115983
0.059587
0.051530
0.067643
0.059587
0.003190
-0.020980
-0.045150
-0.045150
-0.037093
-0.037093
-0.020980
-0.029036
-0.061263
-0.029036
-0.029036
-0.020980
-0.020980
0.003190
-0.020980
-0.020980
-0.020980
-0.029036
-0.012923
-0.020980
-0.012923
-0.029036
-0.029036
0.011247
-0.004866
-0.004866
0.003190
-0.004866
-0.012923
-0.004866
0.011247
0.011247
0.051530
0.019304
0.035417
-0.004866
-0.029036
-0.004866
-0.020980
-0.004866
-0.004866
0.011247
0.003190
-0.012923
0.003190
-0.125716
-0.294905
-0.415755
-0.439925
-0.431868
-0.423812
-0.447982
-0.431868
-0.351302
-0.335189
-0.246566
-0.182112
-0.157942
-0.117659
-0.125716
-0.117659
-0.109603
-0.053206
-0.029036
0.003190
0.019304
-0.012923
-0.004866
-0.029036
-0.020980
-0.020980
0.003190
-0.004866
0.003190
0.035417
0.148210
0.220720
0.220720
0.252946
0.196550
0.188493
0.140153
0.132097
0.115983
0.075700
0.011247
0.003190
-0.020980
-0.029036
-0.012923
0.011247
-0.020980
-0.037093
-0.045150
-0.012923
-0.029036
-0.029036
-0.029036
-0.029036
-0.029036
-0.020980
-0.037093
-0.020980
-0.012923
-0.053206
-0.053206
-0.020980
-0.029036
-0.045150
0.107927
0.269059
0.349626
0.357683
0.349626
0.341569
0.373796
0.349626
0.341569
0.277116
0.196550
0.132097
0.140153
0.091813
0.067643
0.075700
0.067643
0.035417
-0.020980
-0.004866
-0.029036
-0.037093
-0.012923
-0.053206
-0.012923
-0.037093
-0.029036
-0.053206
-0.029036
-0.029036
-0.061263
-0.061263
-0.020980
-0.029036
-0.037093
-0.020980
-0.012923
-0.012923
-0.012923
0.003190
0.011247
-0.004866
-0.020980
0.003190
0.003190
0.011247
-0.020980
0.003190
-0.012923
-0.012923
-0.004866
0.027360
0.003190
0.027360
-0.012923
-0.020980
0.011247
0.003190
0.011247
0.027360
0.003190
0.011247
0.019304
-0.004866
-0.141829
-0.278792
-0.407698
-0.439925
-0.439925
-0.399642
-0.407698
-0.407698
-0.359358
-0.335189
-0.238509
-0.206282
-0.182112
-0.125716
-0.117659
-0.109603
-0.037093
-0.045150
-0.029036
-0.020980
-0.012923
0.011247
0.003190
0.011247
-0.004866
0.011247
0.043474
-0.012923
0.003190
-0.004866
-0.012923
0.011247
0.011247
-0.012923
-0.020980
-0.020980
-0.020980
-0.004866
-0.029036
-0.037093
-0.029036
0.011247
-0.012923
-0.020980
-0.053206
-0.020980
-0.029036
-0.053206
-0.029036
-0.037093
-0.045150
-0.012923
-0.061263
-0.045150
-0.069319
-0.037093
-0.077376
-0.077376
-0.077376
0.059587
0.172380
0.220720
0.188493
0.204606
0.341569
0.478532
0.510759
0.526872
0.470475
0.438249
0.422136
0.381852
0.349626
0.317399
0.236833
0.164323
0.115983
0.099870
0.099870
0.099870
0.075700
0.035417
-0.004866
-0.037093
-0.029036
-0.037093
-0.053206
-0.037093
0.011247
-0.012923
-0.020980
-0.045150
-0.037093
0.003190
-0.029036
-0.012923
-0.037093
-0.045150
-0.029036
-0.020980
-0.045150
-0.020980
-0.053206
-0.045150
-0.045150
-0.020980
-0.037093
-0.020980
0.011247
0.019304
0.003190
-0.020980
0.011247
0.019304
0.003190
0.035417
0.003190
-0.004866
0.011247
0.011247
0.019304
0.011247
0.011247
-0.020980
-0.004866
-0.004866
-0.004866
-0.020980
-0.165999
-0.294905
-0.399642
-0.423812
-0.415755
-0.423812
-0.415755
-0.415755
-0.391585
-0.311019
-0.246566
-0.206282
-0.149886
-0.157942
-0.109603
-0.085433
-0.077376
-0.029036
-0.037093
-0.012923
0.011247
0.011247
0.011247
-0.004866
-0.020980
0.043474
-0.020980
0.011247
0.011247
-0.012923
0.011247
0.011247
0.011247
-0.012923
-0.012923
0.003190
-0.004866
-0.004866
-0.012923
-0.029036
-0.004866
-0.037093
-0.020980
-0.004866
-0.004866
-0.037093
-0.029036
-0.012923
-0.020980
0.011247
-0.037093
-0.037093
-0.020980
-0.020980
-0.020980
-0.020980
-0.037093
-0.029036
-0.029036
-0.061263
-0.020980
-0.037093
-0.037093
-0.020980
0.140153
0.293229
0.373796
0.373796
0.365739
0.357683
0.365739
0.325456
0.317399
0.277116
0.220720
0.156267
0.140153
0.091813
0.067643
0.059587
0.051530
0.019304
0.011247
-0.004866
0.027360
0.124040
0.204606
0.236833
0.220720
0.188493
0.140153
0.140153
0.083757
0.067643
0.011247
0.019304
-0.004866
-0.004866
0.003190
-0.020980
-0.045150
-0.012923
-0.037093
-0.020980
-0.004866
-0.053206
-0.020980
-0.020980
-0.029036
-0.012923
-0.012923
-0.020980
0.019304
-0.029036
0.011247
0.019304
0.019304
-0.004866
-0.020980
-0.004866
0.003190
-0.012923
0.011247
-0.004866
-0.029036
0.035417
-0.020980
-0.061263
-0.157942
-0.343245
-0.399642
-0.431868
-0.407698
-0.391585
-0.399642
-0.375472
-0.335189
-0.278792
-0.214339
-0.198226
-0.125716
-0.133773
-0.077376
-0.101546
-0.077376
-0.061263
-0.012923
-0.020980
-0.012923
0.059587
0.011247
-0.004866
-0.004866
-0.004866
0.003190
0.035417
-0.020980
-0.012923
-0.004866
-0.004866
-0.004866
-0.029036
-0.012923
0.003190
-0.004866
-0.004866
-0.045150
-0.020980
0.003190
-0.029036
-0.004866
0.003190
-0.029036
-0.053206
-0.020980
-0.012923
-0.004866
-0.004866
-0.029036
-0.020980
-0.020980
-0.029036
-0.037093
-0.037093
-0.012923
-0.029036
-0.061263
-0.045150
-0.037093
-0.053206
-0.037093
0.003190
0.140153
0.309343
0.389909
0.373796
0.422136
0.349626
0.381852
0.373796
0.333513
0.244890
0.212663
0.180436
0.148210
0.115983
0.099870
0.059587
0.051530
0.035417
0.003190
-0.012923
0.011247
-0.012923
-0.037093
-0.012923
-0.012923
-0.029036
-0.037093
-0.053206
-0.053206
-0.037093
-0.045150
-0.045150
-0.004866
0.003190
-0.029036
-0.004866
-0.020980
-0.037093
-0.020980
-0.012923
-0.029036
-0.012923
-0.012923
-0.029036
-0.004866
-0.029036
0.003190
-0.012923
0.051530
0.156267
0.269059
0.261003
0.220720
0.204606
0.180436
0.164323
0.148210
0.115983
0.091813
0.051530
0.051530
0.059587
0.019304
-0.053206
-0.157942
-0.335189
-0.447982
-0.431868
-0.383528
-0.407698
-0.399642
-0.407698
-0.383528
-0.294905
-0.238509
-0.165999
-0.149886
-0.157942
-0.085433
-0.109603
-0.109603
-0.012923
-0.029036
-0.029036
-0.020980
0.011247
-0.004866
-0.029036
0.011247
0.003190
0.027360
-0.004866
0.075700
0.011247
0.019304
0.003190
0.003190
-0.029036
0.003190
0.019304
-0.045150
-0.004866
0.003190
-0.004866
0.003190
-0.020980
-0.037093
-0.012923
-0.020980
-0.045150
-0.004866
-0.004866
-0.029036
-0.004866
-0.029036
-0.020980
-0.012923
-0.012923
-0.029036
-0.020980
-0.053206
-0.020980
-0.012923
-0.029036
0.011247
-0.037093
-0.004866
0.027360
0.164323
0.325456
0.389909
0.406022
0.414079
0.406022
0.381852
0.349626
0.341569
0.252946
0.212663
0.156267
0.107927
0.124040
0.140153
0.115983
0.067643
0.035417
0.051530
-0.029036
0.003190
-0.020980
-0.029036
-0.020980
-0.020980
-0.012923
-0.037093
-0.045150
0.027360
-0.037093
-0.020980
-0.012923
-0.045150
-0.020980
-0.012923
-0.037093
-0.037093
-0.012923
-0.037093
-0.045150
-0.045150
-0.037093
0.003190
-0.012923
0.019304
-0.020980
-0.004866
-0.012923
-0.012923
0.003190
0.003190
0.003190
0.019304
0.011247
0.003190
0.019304
0.027360
0.011247
0.003190
0.003190
0.003190
0.003190
0.003190
0.003190
-0.190169
-0.359358
-0.439925
-0.415755
-0.439925
-0.407698
-0.423812
-0.343245
-0.206282
-0.093489
-0.012923
0.011247
0.003190
0.043474
0.027360
0.011247
0.019304
-0.004866
0.011247
0.043474
0.027360
0.003190
0.027360
0.011247
-0.012923
-0.004866
-0.004866
0.011247
0.003190
-0.020980
0.011247
-0.020980
-0.045150
0.011247
-0.012923
-0.020980
-0.012923
-0.012923
-0.053206
-0.029036
-0.004866
-0.029036
-0.037093
-0.012923
-0.053206
-0.045150
-0.037093
-0.053206
-0.037093
-0.029036
-0.061263
-0.012923
