-2.772656
-3.360791
-1.862256
-0.976025
-0.492627
-0.186475
-0.395947
-0.057568
-0.001172
0.006885
-0.025342
-0.001172
0.014941
-0.025342
-0.033398
-0.025342
-0.033398
-0.025342
0.006885
0.039111
-0.001172
-0.025342
-0.009228
-0.041455
-0.033398
-0.033398
-0.033398
-0.041455
-0.049512
-0.033398
-0.017285
0.006885
-0.033398
-0.017285
-0.001172
-0.041455
-0.065625
-0.057568
-0.041455
-0.033398
-0.065625
0.022998
0.176074
0.425830
0.474170
0.546680
0.546680
0.514453
0.514453
0.474170
0.474170
0.498340
0.433887
0.401660
0.369434
0.296924
0.264697
0.200244
0.184131
0.159961
0.159961
0.151904
0.127734
0.103564
0.087451
0.071338
0.022998
0.006885
0.006885
-0.001172
-0.025342
0.006885
-0.017285
-0.017285
-0.001172
-0.025342
-0.033398
0.006885
-0.009228
-0.033398
-0.009228
-0.017285
-0.033398
0.006885
0.006885
-0.033398
-0.017285
-0.001172
0.006885
-0.001172
-0.017285
-0.009228
0.039111
0.014941
-0.009228
-0.009228
-0.009228
0.039111
-0.025342
0.014941
0.014941
-0.009228
0.006885
-0.017285
-0.017285
-0.113965
-0.234814
-0.275098
-0.283154
-0.363721
-0.371777
-0.395947
-0.371777
-0.436230
-0.428174
-0.452344
-0.452344
-0.379834
-0.323437
-0.267041
-0.250928
-0.194531
-0.178418
-0.146191
-0.105908
-0.113965
-0.105908
-0.065625
-0.049512
-0.065625
0.014941
0.006885
-0.009228
-0.009228
-0.009228
-0.001172
0.039111
-0.001172
0.014941
0.014941
-0.009228
0.006885
-0.001172
-0.017285
-0.009228
-0.041455
-0.033398
-0.025342
0.006885
-0.057568
-0.017285
-0.049512
-0.017285
-0.057568
-0.065625
-0.049512
-0.025342
-0.025342
-0.017285
-0.025342
-0.025342
-0.065625
-0.025342
-0.033398
-0.025342
-0.009228
-0.017285
-0.017285
-0.049512
-0.033398
0.039111
0.224414
0.385547
0.466113
0.514453
0.466113
0.466113
0.450000
0.417773
0.450000
0.450000
0.385547
0.296924
0.232471
0.168018
0.168018
0.119678
0.111621
0.127734
0.087451
0.055225
0.039111
0.031055
-0.033398
-0.017285
-0.033398
-0.041455
-0.017285
-0.025342
-0.017285
-0.025342
-0.017285
-0.033398
0.006885
-0.001172
-0.033398
-0.017285
-0.001172
-0.001172
-0.017285
-0.033398
-0.041455
-0.009228
-0.001172
-0.001172
-0.001172
-0.009228
-0.017285
0.006885
0.006885
-0.017285
0.014941
-0.009228
-0.025342
0.006885
-0.017285
0.022998
0.031055
0.047168
0.022998
-0.001172
0.006885
0.022998
0.014941
0.006885
0.006885
-0.057568
-0.250928
-0.371777
-0.395947
-0.395947
-0.412061
-0.404004
-0.404004
-0.379834
-0.347607
-0.283154
-0.218701
-0.210645
-0.178418
-0.130078
-0.122021
-0.105908
-0.081738
-0.057568
-0.017285
-0.009228
-0.041455
-0.017285
-0.001172
-0.049512
-0.001172
0.006885
0.135791
0.232471
0.240527
0.240527
0.184131
0.192188
0.143848
0.079395
0.071338
0.103564
0.071338
0.022998
-0.001172
-0.033398
-0.009228
-0.009228
-0.017285
-0.001172
-0.009228
-0.033398
-0.001172
-0.009228
-0.025342
-0.057568
-0.025342
-0.025342
-0.025342
-0.073682
-0.041455
-0.025342
-0.049512
-0.049512
-0.017285
-0.049512
-0.049512
-0.057568
-0.009228
-0.001172
0.176074
0.321094
0.353320
0.393604
0.393604
0.393604
0.409717
0.353320
0.345264
0.256641
0.232471
0.176074
0.127734
0.087451
0.095508
0.055225
0.039111
0.039111
0.022998
0.006885
-0.017285
-0.033398
0.014941
-0.009228
0.006885
0.006885
-0.017285
-0.001172
-0.009228
0.014941
-0.001172
0.014941
-0.009228
-0.033398
-0.057568
0.006885
-0.001172
0.031055
-0.001172
-0.033398
-0.001172
-0.009228
-0.009228
0.006885
-0.017285
-0.001172
0.006885
0.006885
0.014941
0.006885
0.039111
0.006885
0.047168
-0.001172
-0.001172
0.006885
-0.009228
0.014941
-0.001172
0.022998
0.006885
0.006885
0.047168
-0.001172
-0.130078
-0.315381
-0.363721
-0.395947
-0.363721
-0.395947
-0.428174
-0.412061
-0.379834
-0.291211
-0.218701
-0.178418
-0.154248
-0.097852
-0.089795
-0.057568
-0.057568
-0.049512
0.006885
-0.001172
0.022998
-0.017285
-0.001172
-0.009228
0.014941
0.022998
0.031055
-0.025342
0.006885
-0.009228
0.006885
-0.033398
0.006885
-0.025342
-0.017285
-0.017285
-0.033398
-0.017285
-0.017285
-0.009228
-0.001172
-0.025342
-0.017285
-0.049512
-0.033398
-0.049512
-0.049512
-0.065625
-0.025342
-0.049512
-0.025342
0.103564
0.200244
0.176074
0.192188
0.151904
0.135791
0.119678
0.127734
0.095508
0.047168
0.022998
-0.001172
0.006885
0.079395
0.248584
0.329150
0.361377
0.369434
0.393604
0.369434
0.377490
0.321094
0.264697
0.192188
0.151904
0.127734
0.095508
0.095508
0.047168
0.031055
0.014941
0.031055
0.022998
-0.017285
0.022998
-0.025342
-0.017285
-0.009228
0.014941
-0.009228
-0.009228
-0.057568
-0.009228
-0.033398
-0.025342
0.022998
-0.025342
-0.025342
-0.001172
-0.025342
-0.009228
-0.025342
-0.009228
-0.017285
0.006885
0.006885
0.022998
0.022998
0.014941
-0.009228
0.006885
0.022998
0.031055
-0.009228
0.006885
0.047168
0.014941
0.039111
0.014941
-0.017285
-0.009228
0.014941
0.006885
0.031055
-0.025342
0.014941
0.014941
-0.057568
-0.226758
-0.363721
-0.379834
-0.371777
-0.404004
-0.387891
-0.387891
-0.331494
-0.291211
-0.210645
-0.186475
-0.146191
-0.089795
-0.113965
-0.081738
-0.073682
-0.041455
-0.025342
0.014941
0.014941
0.014941
-0.033398
0.006885
0.022998
0.006885
-0.017285
0.014941
-0.001172
0.006885
0.039111
0.014941
-0.017285
0.006885
-0.017285
0.022998
-0.001172
0.014941
-0.009228
0.006885
-0.009228
-0.001172
-0.049512
-0.041455
-0.017285
-0.017285
-0.041455
-0.049512
-0.041455
-0.017285
-0.025342
-0.017285
-0.041455
-0.001172
-0.033398
-0.001172
-0.009228
-0.033398
-0.001172
0.014941
-0.017285
-0.033398
-0.073682
-0.033398
0.039111
0.232471
0.304980
0.361377
0.393604
0.345264
0.353320
0.369434
0.304980
0.280811
0.192188
0.151904
0.127734
0.079395
0.095508
0.200244
0.264697
0.272754
0.248584
0.200244
0.184131
0.143848
0.087451
0.079395
0.031055
-0.017285
0.014941
-0.009228
0.006885
0.006885
-0.025342
-0.025342
-0.009228
-0.017285
-0.009228
0.039111
-0.017285
-0.009228
0.022998
-0.017285
-0.025342
-0.001172
0.006885
0.014941
-0.001172
0.006885
0.022998
0.022998
0.031055
-0.001172
0.014941
0.039111
0.022998
0.031055
0.022998
0.006885
-0.017285
0.014941
-0.025342
-0.001172
0.022998
-0.009228
0.047168
0.039111
-0.097852
-0.202588
-0.307324
-0.379834
-0.371777
-0.355664
-0.355664
-0.339551
-0.291211
-0.283154
-0.178418
-0.194531
-0.130078
-0.138135
-0.081738
-0.065625
-0.065625
-0.041455
-0.017285
0.014941
-0.009228
-0.001172
-0.009228
0.006885
-0.001172
-0.017285
-0.001172
0.006885
0.063281
0.006885
-0.009228
-0.001172
-0.001172
0.039111
0.006885
0.022998
-0.025342
-0.001172
-0.009228
-0.017285
-0.017285
-0.009228
-0.025342
-0.017285
-0.017285
0.022998
-0.017285
-0.033398
-0.017285
-0.033398
-0.001172
0.006885
0.022998
0.031055
-0.017285
0.014941
-0.049512
0.022998
-0.001172
-0.017285
-0.009228
-0.049512
-0.033398
-0.009228
0.022998
0.216357
0.329150
0.321094
0.377490
0.369434
0.385547
0.385547
0.353320
0.288867
0.192188
0.168018
0.143848
0.071338
0.071338
0.031055
0.071338
0.039111
-0.033398
-0.009228
-0.009228
-0.009228
0.006885
-0.017285
-0.025342
-0.017285
-0.017285
-0.025342
-0.009228
-0.049512
-0.049512
-0.017285
-0.001172
-0.033398
-0.033398
-0.017285
0.006885
-0.009228
0.119678
0.216357
0.224414
0.248584
0.232471
0.200244
0.159961
0.135791
0.119678
0.031055
0.031055
0.031055
0.047168
0.006885
-0.001172
0.047168
-0.001172
-0.009228
0.014941
0.039111
0.006885
0.022998
0.039111
-0.009228
-0.009228
-0.017285
-0.049512
-0.242871
-0.323437
-0.363721
-0.347607
-0.412061
-0.412061
-0.412061
-0.331494
-0.242871
-0.202588
-0.170361
-0.154248
-0.113965
-0.089795
-0.113965
-0.057568
-0.041455
-0.033398
0.031055
0.006885
-0.001172
0.006885
-0.009228
0.022998
0.014941
0.031055
0.031055
-0.001172
-0.017285
-0.001172
0.006885
-0.033398
-0.009228
-0.025342
-0.001172
-0.057568
-0.025342
-0.001172
-0.033398
-0.009228
0.006885
-0.009228
-0.049512
-0.041455
-0.033398
-0.017285
-0.017285
-0.025342
-0.033398
-0.017285
-0.017285
-0.041455
-0.001172
-0.025342
-0.017285
-0.009228
-0.001172
-0.041455
-0.041455
-0.017285
-0.041455
-0.041455
-0.033398
0.039111
0.192188
0.280811
0.353320
0.337207
0.361377
0.361377
0.353320
0.329150
0.232471
0.216357
0.168018
0.103564
0.087451
0.103564
0.071338
0.063281
0.006885
0.014941
-0.009228
-0.009228
-0.049512
-0.041455
-0.041455
-0.025342
-0.017285
-0.009228
-0.017285
-0.017285
-0.033398
0.006885
-0.025342
-0.009228
-0.033398
-0.041455
-0.017285
-0.001172
-0.017285
-0.025342
-0.001172
-0.001172
0.022998
-0.025342
-0.025342
-0.025342
0.022998
-0.009228
0.014941
-0.009228
0.006885
-0.009228
0.022998
0.006885
-0.001172
0.014941
-0.001172
0.006885
0.006885
0.022998
-0.009228
-0.033398
-0.009228
-0.017285
-0.001172
-0.081738
-0.250928
-0.331494
-0.307324
-0.210645
-0.162305
-0.154248
-0.138135
-0.105908
-0.089795
-0.089795
-0.009228
-0.001172
-0.033398
-0.001172
-0.041455
-0.065625
0.014941
-0.025342
0.006885
-0.001172
-0.001172
0.006885
0.022998
0.014941
0.039111
0.014941
0.022998
0.022998
-0.009228
0.006885
-0.001172
-0.017285
0.014941
0.006885
-0.001172
-0.033398
-0.009228
-0.057568
-0.033398
0.006885
-0.009228
-0.025342
-0.025342
-0.025342
-0.049512
-0.049512
-0.033398
-0.041455
-0.009228
-0.017285
-0.049512
-0.017285
-0.041455
-0.041455
-0.033398
-0.057568
-0.017285
-0.025342
0.006885
-0.033398
-0.033398
-0.017285
-0.025342
0.071338
0.216357
0.304980
0.377490
0.345264
0.369434
0.353320
0.337207
0.345264
0.256641
0.208301
0.184131
0.119678
0.103564
0.071338
0.063281
0.079395
0.039111
0.014941
-0.025342
-0.001172
0.006885
-0.017285
-0.041455
0.006885
-0.017285
0.006885
0.014941
-0.033398
-0.009228
-0.025342
-0.001172
-0.009228
-0.001172
-0.033398
0.006885
0.031055
-0.001172
-0.017285
-0.009228
0.047168
-0.017285
-0.009228
-0.001172
-0.009228
0.039111
-0.001172
0.031055
-0.001172
0.006885
0.014941
0.014941
0.022998
0.022998
0.055225
0.022998
-0.033398
0.014941
0.014941
0.006885
0.006885
0.022998
-0.009228
0.006885
-0.041455
-0.218701
-0.291211
-0.355664
-0.371777
-0.387891
-0.371777
-0.331494
-0.331494
-0.267041
-0.210645
-0.194531
-0.113965
-0.105908
-0.097852
-0.097852
-0.041455
-0.033398
0.022998
0.006885
0.014941
0.022998
-0.001172
-0.017285
0.022998
-0.001172
-0.017285
-0.009228
0.031055
0.103564
0.200244
0.168018
0.143848
0.127734
0.055225
0.095508
0.047168
0.079395
0.014941
0.014941
-0.001172
0.014941
0.031055
-0.009228
-0.025342
-0.017285
-0.065625
-0.025342
-0.017285
-0.033398
-0.033398
-0.025342
-0.033398
-0.017285
-0.041455
-0.065625
-0.033398
-0.025342
-0.041455
-0.025342
-0.049512
-0.025342
-0.033398
-0.025342
0.047168
0.168018
0.313037
0.353320
0.369434
0.369434
0.345264
0.377490
0.329150
0.264697
0.200244
0.176074
0.119678
0.087451
0.071338
0.047168
0.055225
-0.001172
-0.017285
-0.009228
-0.025342
-0.009228
-0.025342
0.006885
-0.017285
-0.017285
-0.025342
-0.017285
-0.017285
-0.009228
-0.009228
-0.041455
0.039111
-0.001172
-0.017285
-0.033398
-0.025342
0.022998
-0.009228
-0.017285
0.014941
-0.009228
-0.009228
0.014941
-0.009228
0.014941
0.006885
0.014941
0.022998
0.006885
-0.009228
0.006885
0.006885
0.014941
0.039111
0.014941
-0.009228
-0.017285
-0.001172
-0.001172
-0.001172
-0.009228
0.031055
0.014941
-0.057568
-0.226758
-0.331494
-0.379834
-0.339551
-0.363721
-0.387891
-0.404004
-0.315381
-0.283154
-0.226758
-0.162305
-0.113965
-0.105908
-0.073682
-0.073682
-0.065625
-0.025342
0.006885
0.006885
0.022998
0.031055
0.014941
0.022998
0.006885
0.006885
0.014941
0.022998
0.047168
0.014941
-0.001172
0.006885
-0.001172
-0.001172
0.014941
-0.001172
0.006885
-0.033398
0.022998
-0.017285
-0.017285
-0.009228
0.014941
-0.057568
-0.017285
-0.041455
-0.009228
-0.025342
-0.009228
-0.025342
-0.025342
-0.025342
-0.057568
-0.041455
-0.009228
-0.017285
-0.025342
0.079395
0.176074
0.216357
0.176074
0.151904
0.095508
0.079395
0.127734
0.288867
0.329150
0.385547
0.401660
0.377490
0.385547
0.385547
0.353320
0.280811
0.200244
0.168018
0.111621
0.071338
0.079395
0.063281
0.055225
0.047168
0.031055
-0.001172
0.014941
0.006885
-0.009228
-0.001172
0.006885
-0.009228
-0.009228
0.006885
-0.025342
-0.017285
-0.017285
-0.009228
-0.025342
-0.017285
-0.009228
0.006885
-0.025342
0.014941
0.022998
0.006885
-0.001172
-0.009228
-0.009228
0.031055
-0.009228
0.031055
0.014941
0.006885
0.022998
0.039111
0.031055
0.022998
0.014941
0.031055
0.006885
0.047168
0.022998
-0.009228
0.014941
-0.025342
0.014941
0.014941
-0.009228
0.014941
-0.065625
-0.202588
-0.323437
-0.355664
-0.379834
-0.428174
-0.371777
-0.363721
-0.323437
-0.258984
-0.218701
-0.178418
-0.122021
-0.105908
-0.073682
-0.057568
-0.057568
-0.025342
-0.001172
0.006885
-0.009228
0.014941
0.006885
0.014941
0.022998
-0.001172
-0.001172
0.014941
-0.001172
0.014941
-0.009228
-0.017285
-0.001172
0.006885
-0.017285
-0.009228
-0.009228
-0.033398
0.006885
0.006885
0.006885
-0.001172
-0.001172
-0.001172
-0.017285
0.006885
-0.001172
0.006885
-0.009228
-0.041455
-0.049512
-0.009228
-0.025342
0.014941
-0.033398
-0.017285
-0.017285
-0.025342
-0.033398
-0.025342
-0.041455
-0.033398
-0.025342
0.006885
0.071338
0.224414
0.313037
0.377490
0.369434
0.401660
0.369434
0.337207
0.296924
0.256641
0.192188
0.176074
0.143848
0.103564
0.063281
0.055225
0.151904
0.143848
0.151904
0.079395
0.079395
0.055225
0.022998
0.022998
0.047168
0.006885
-0.001172
0.022998
-0.001172
-0.025342
-0.041455
0.006885
-0.049512
0.014941
0.022998
0.006885
-0.001172
-0.025342
-0.001172
-0.001172
0.006885
0.006885
-0.017285
0.022998
0.022998
0.014941
-0.001172
-0.001172
0.055225
0.022998
-0.017285
0.039111
0.014941
-0.009228
0.006885
-0.001172
0.014941
0.014941
0.006885
0.014941
0.022998
0.014941
0.031055
0.022998
-0.097852
-0.218701
-0.339551
-0.355664
-0.387891
-0.371777
-0.371777
-0.371777
-0.315381
-0.258984
-0.210645
-0.138135
-0.146191
-0.089795
-0.113965
-0.041455
-0.057568
-0.041455
-0.017285
0.039111
-0.009228
-0.017285
-0.009228
0.014941
0.006885
0.014941
0.014941
0.039111
-0.017285
0.014941
-0.001172
0.006885
0.006885
0.022998
-0.001172
0.006885
-0.025342
0.006885
0.014941
0.022998
-0.025342
-0.057568
-0.009228
-0.017285
0.006885
-0.025342
0.014941
-0.033398
-0.009228
-0.001172
-0.049512
-0.049512
-0.001172
0.006885
0.022998
-0.009228
0.006885
-0.001172
-0.001172
-0.017285
-0.017285
-0.025342
-0.033398
-0.001172
0.095508
0.248584
0.304980
0.353320
0.361377
0.401660
0.345264
0.353320
0.296924
0.288867
0.200244
0.143848
0.127734
0.095508
0.095508
0.063281
0.063281
0.055225
-0.001172
0.006885
-0.001172
-0.025342
-0.009228
-0.033398
0.022998
-0.033398
-0.033398
-0.009228
-0.017285
-0.009228
-0.041455
-0.025342
-0.009228
-0.017285
-0.009228
-0.009228
-0.009228
-0.033398
-0.025342
0.006885
-0.001172
-0.009228
-0.001172
-0.041455
-0.017285
-0.009228
0.151904
0.216357
0.240527
0.216357
0.192188
0.103564
0.127734
0.055225
0.039111
0.055225
0.063281
0.006885
0.022998
0.006885
0.022998
0.014941
0.039111
0.039111
-0.073682
-0.242871
-0.283154
-0.355664
-0.387891
-0.371777
-0.379834
-0.347607
-0.331494
-0.226758
-0.218701
-0.178418
-0.162305
-0.113965
-0.105908
-0.081738
-0.025342
0.014941
-0.025342
0.022998
-0.001172
0.039111
0.039111
0.014941
0.006885
0.006885
0.022998
0.022998
0.014941
-0.001172
-0.009228
0.006885
-0.001172
0.014941
0.006885
0.006885
-0.001172
-0.009228
-0.001172
-0.001172
0.022998
-0.025342
0.006885
-0.001172
-0.017285
0.006885
-0.041455
-0.001172
-0.009228
-0.017285
0.006885
-0.017285
0.006885
-0.033398
-0.001172
-0.033398
-0.009228
-0.009228
-0.033398
-0.017285
-0.017285
-0.001172
0.006885
-0.025342
0.047168
0.248584
0.329150
0.377490
0.361377
0.385547
0.369434
0.353320
0.304980
0.232471
0.192188
0.176074
0.095508
0.087451
0.095508
0.047168
0.055225
0.022998
0.006885
-0.017285
-0.017285
-0.017285
-0.033398
-0.025342
-0.017285
-0.001172
-0.001172
-0.033398
-0.009228
-0.009228
-0.025342
-0.033398
-0.009228
-0.009228
-0.009228
-0.009228
0.022998
-0.009228
-0.017285
0.006885
-0.001172
-0.001172
-0.009228
0.006885
-0.001172
0.039111
0.031055
-0.001172
0.022998
-0.001172
0.006885
-0.001172
0.022998
-0.009228
0.014941
0.031055
-0.009228
-0.001172
-0.001172
0.031055
0.022998
0.014941
0.022998
0.014941
-0.081738
-0.226758
-0.355664
-0.339551
-0.387891
-0.379834
-0.339551
-0.226758
-0.122021
-0.033398
0.022998
0.014941
0.031055
0.014941
0.006885
-0.009228
-0.017285
-0.001172
-0.017285
-0.001172
0.022998
0.022998
0.047168
0.006885
0.014941
0.006885
-0.001172
-0.009228
0.022998
0.006885
-0.001172
-0.009228
0.022998
0.006885
-0.001172
-0.009228
-0.001172
-0.001172
-0.025342
-0.009228
-0.033398
-0.017285
-0.017285
-0.017285
-0.065625
-0.049512
-0.033398
0.014941
-0.025342
-0.025342
-0.033398
-0.057568
-0.009228
-0.041455
-0.041455
-0.049512
-0.017285
-0.033398
-0.025342
-0.009228
-0.025342
-0.041455
-0.057568
-0.025342
0.071338
0.232471
0.313037
0.337207
0.337207
0.393604
0.345264
0.337207
0.329150
0.224414
0.176074
0.127734
0.095508
0.103564
0.055225
0.087451
0.079395
0.055225
0.039111
-0.025342
-0.017285
-0.001172
-0.033398
-0.041455
-0.001172
0.022998
-0.009228
-0.017285
-0.025342
0.006885
-0.009228
-0.033398
-0.033398
-0.025342
0.006885
0.006885
-0.041455
0.006885
0.014941
-0.001172
-0.017285
0.022998
0.014941
-0.017285
0.022998
0.031055
0.022998
-0.017285
-0.001172
0.014941
-0.009228
0.039111
0.022998
-0.001172
0.039111
-0.001172
0.014941
-0.001172
-0.009228
-0.009228
0.014941
0.047168
0.022998
0.006885
-0.089795
-0.234814
-0.291211
-0.371777
-0.379834
-0.395947
-0.387891
-0.355664
-0.339551
-0.250928
-0.186475
-0.146191
-0.138135
-0.105908
-0.130078
-0.105908
-0.065625
-0.057568
-0.017285
-0.009228
-0.001172
-0.001172
0.006885
0.022998
0.031055
-0.001172
0.006885
-0.001172
-0.009228
-0.041455
-0.017285
-0.017285
-0.057568
-0.041455
-0.025342
0.071338
0.232471
0.248584
0.176074
0.176074
0.159961
0.087451
0.047168
0.063281
0.014941
-0.025342
-0.017285
-0.017285
-0.017285
0.014941
-0.025342
0.006885
-0.025342
-0.025342
-0.017285
-0.041455
-0.025342
0.014941
-0.041455
-0.017285
-0.001172
-0.033398
-0.033398
-0.057568
0.047168
0.208301
0.321094
0.353320
0.377490
0.329150
0.361377
0.361377
0.304980
0.248584
0.184131
0.176074
0.095508
0.111621
0.055225
0.022998
0.031055
-0.001172
-0.001172
-0.017285
-0.017285
-0.033398
-0.025342
-0.025342
-0.025342
-0.017285
-0.009228
-0.049512
-0.049512
-0.025342
-0.009228
-0.049512
-0.001172
0.022998
-0.009228
-0.041455
-0.041455
-0.009228
-0.041455
-0.025342
0.006885
-0.017285
-0.025342
0.039111
-0.009228
0.006885
-0.001172
-0.009228
0.006885
0.014941
-0.009228
-0.001172
0.014941
0.006885
-0.001172
-0.001172
0.006885
-0.001172
0.047168
0.014941
0.006885
-0.017285
0.014941
0.014941
-0.057568
-0.250928
-0.347607
-0.371777
-0.395947
-0.395947
-0.379834
-0.371777
-0.355664
-0.234814
-0.218701
-0.154248
-0.130078
-0.105908
-0.105908
-0.065625
-0.073682
-0.033398
-0.009228
0.006885
0.006885
-0.001172
0.031055
0.006885
-0.001172
0.006885
-0.025342
0.031055
-0.001172
-0.001172
-0.017285
-0.001172
0.031055
0.006885
-0.009228
-0.017285
-0.017285
-0.009228
0.006885
-0.017285
-0.041455
-0.033398
-0.041455
-0.025342
-0.033398
-0.017285
-0.009228
-0.001172
-0.033398
-0.057568
-0.025342
-0.041455
-0.017285
-0.041455
-0.001172
-0.009228
-0.057568
-0.009228
0.079395
0.135791
0.184131
0.127734
0.071338
0.071338
0.135791
0.296924
0.377490
0.377490
0.385547
0.433887
0.361377
0.353320
0.321094
0.248584
0.216357
0.184131
0.119678
0.087451
0.039111
0.079395
0.055225
0.031055
0.006885
-0.017285
-0.009228
-0.033398
-0.017285
-0.041455
-0.017285
-0.001172
-0.025342
-0.017285
-0.009228
-0.001172
-0.041455
-0.001172
-0.009228
-0.009228
0.006885
-0.001172
-0.001172
-0.009228
-0.033398
-0.001172
-0.001172
0.014941
-0.009228
-0.001172
0.006885
-0.001172
0.014941
0.006885
0.006885
0.022998
-0.001172
0.022998
-0.001172
0.014941
0.006885
-0.001172
0.014941
0.014941
-0.001172
0.006885
0.006885
0.031055
-0.001172
0.014941
-0.105908
-0.258984
-0.331494
-0.355664
-0.379834
-0.395947
-0.355664
-0.355664
-0.331494
-0.283154
-0.170361
-0.170361
-0.122021
-0.105908
-0.089795
-0.122021
-0.041455
-0.001172
-0.025342
-0.025342
0.022998
-0.009228
0.006885
-0.001172
-0.001172
-0.001172
0.006885
0.006885
-0.025342
0.022998
-0.025342
-0.017285
-0.017285
-0.001172
-0.017285
-0.009228
0.006885
0.006885
0.022998
0.014941
-0.017285
-0.017285
-0.017285
-0.017285
-0.025342
-0.001172
-0.049512
-0.009228
-0.033398
-0.025342
-0.001172
-0.009228
-0.041455
-0.025342
-0.025342
-0.009228
-0.017285
-0.041455
-0.017285
-0.033398
-0.033398
0.006885
-0.025342
-0.001172
0.063281
0.232471
0.329150
0.337207
0.337207
0.369434
0.361377
0.393604
0.313037
0.248584
0.184131
0.159961
0.111621
0.071338
0.071338
0.039111
0.006885
0.022998
0.014941
-0.025342
-0.057568
-0.041455
-0.081738
-0.001172
0.111621
0.168018
0.176074
0.151904
0.071338
0.071338
0.063281
0.047168
0.047168
0.031055
0.031055
0.022998
0.014941
-0.001172
0.014941
-0.009228
0.006885
0.014941
-0.001172
-0.001172
-0.017285
0.014941
0.006885
0.022998
0.014941
-0.025342
0.006885
0.022998
0.047168
0.006885
0.031055
0.031055
-0.009228
-0.001172
-0.001172
0.014941
0.006885
0.031055
0.006885
-0.009228
-0.057568
-0.258984
-0.339551
-0.331494
-0.379834
-0.347607
-0.363721
-0.363721
-0.347607
-0.267041
-0.194531
-0.170361
-0.122021
-0.105908
-0.065625
-0.073682
-0.065625
-0.009228
-0.017285
-0.001172
0.031055
0.014941
0.006885
0.014941
-0.001172
0.031055
0.006885
0.006885
0.071338
-0.001172
-0.017285
-0.001172
0.006885
0.006885
-0.009228
-0.009228
-0.009228
-0.017285
0.006885
-0.041455
-0.041455
-0.001172
-0.049512
-0.049512
-0.009228
-0.017285
-0.009228
-0.017285
-0.033398
-0.009228
-0.017285
-0.009228
0.006885
-0.001172
-0.041455
-0.009228
-0.033398
-0.025342
-0.009228
-0.017285
-0.049512
-0.025342
-0.033398
-0.033398
0.039111
0.208301
0.313037
0.361377
0.337207
0.353320
0.337207
0.369434
0.288867
0.248584
0.200244
0.168018
0.119678
0.095508
0.079395
0.111621
0.047168
0.022998
-0.017285
-0.001172
-0.009228
-0.009228
-0.033398
-0.033398
-0.033398
-0.049512
-0.017285
-0.057568
-0.041455
-0.009228
-0.001172
-0.009228
-0.017285
-0.025342
0.006885
-0.017285
0.006885
-0.001172
0.006885
0.022998
-0.017285
-0.001172
-0.017285
0.006885
0.022998
-0.017285
-0.009228
0.006885
0.047168
0.151904
0.208301
0.192188
0.200244
0.111621
0.063281
0.071338
0.055225
0.071338
0.022998
0.031055
0.031055
0.047168
0.006885
0.006885
-0.097852
-0.218701
-0.299268
-0.339551
-0.379834
-0.387891
-0.371777
-0.363721
-0.315381
-0.275098
-0.218701
-0.170361
-0.113965
-0.097852
-0.041455
-0.033398
-0.057568
-0.025342
-0.025342
0.014941
0.071338
0.031055
-0.009228
0.014941
0.039111
0.039111
-0.001172
0.006885
-0.001172
0.031055
0.071338
0.006885
0.006885
-0.025342
0.006885
0.031055
-0.017285
-0.009228
-0.025342
-0.009228
0.014941
-0.001172
0.014941
0.006885
-0.057568
-0.041455
-0.001172
0.014941
-0.033398
-0.017285
-0.001172
-0.041455
-0.009228
-0.017285
-0.041455
-0.009228
-0.009228
-0.033398
-0.017285
-0.009228
0.022998
0.022998
-0.009228
-0.049512
0.063281
0.224414
0.321094
0.369434
0.337207
0.361377
0.377490
0.321094
0.321094
0.224414
0.224414
0.176074
0.103564
0.063281
0.095508
0.063281
0.087451
0.031055
-0.001172
-0.009228
0.006885
-0.025342
-0.057568
-0.009228
-0.009228
0.006885
-0.017285
-0.025342
-0.025342
-0.041455
0.022998
-0.025342
-0.001172
0.006885
0.039111
0.014941
0.022998
-0.017285
-0.001172
0.006885
-0.033398
0.014941
-0.009228
0.006885
0.014941
0.006885
-0.001172
-0.009228
0.031055
-0.009228
-0.025342
0.006885
0.022998
-0.001172
0.031055
-0.025342
0.022998
0.014941
0.006885
0.022998
0.014941
0.014941
-0.017285
-0.001172
-0.073682
-0.242871
-0.331494
-0.363721
-0.387891
-0.420117
-0.404004
-0.404004
-0.355664
-0.275098
-0.226758
-0.170361
-0.138135
0.031055
0.168018
0.168018
0.184131
0.168018
0.159961
0.119678
0.095508
0.095508
0.055225
0.047168
0.022998
0.022998
0.006885
0.014941
0.031055
0.006885
-0.001172
0.022998
0.014941
0.031055
0.014941
-0.009228
-0.025342
0.006885
-0.001172
0.006885
-0.041455
-0.025342
-0.001172
-0.017285
-0.025342
0.014941
-0.041455
-0.033398
-0.017285
-0.001172
-0.033398
-0.041455
-0.017285
-0.025342
-0.041455
-0.025342
-0.033398
-0.009228
-0.033398
-0.017285
-0.001172
-0.009228
-0.033398
-0.009228
0.071338
0.224414
0.296924
0.329150
0.361377
0.361377
0.377490
0.329150
0.313037
0.248584
0.176074
0.135791
0.111621
0.111621
0.071338
0.047168
0.039111
-0.009228
0.022998
0.022998
-0.049512
-0.041455
-0.025342
-0.017285
-0.017285
-0.017285
-0.017285
-0.033398
-0.049512
-0.009228
-0.033398
-0.009228
-0.033398
-0.017285
-0.025342
-0.041455
-0.009228
0.014941
0.022998
-0.025342
0.006885
-0.009228
0.006885
-0.009228
-0.001172
0.006885
-0.009228
-0.001172
0.006885
-0.025342
0.014941
0.022998
0.031055
0.022998
0.031055
-0.033398
-0.001172
0.022998
0.014941
0.039111
0.022998
0.022998
0.014941
-0.009228
-0.105908
-0.250928
-0.315381
-0.347607
-0.387891
-0.379834
-0.387891
-0.395947
-0.331494
-0.275098
-0.250928
-0.162305
-0.130078
-0.130078
-0.081738
-0.057568
-0.057568
-0.049512
-0.033398
-0.017285
-0.001172
0.014941
0.014941
-0.017285
-0.009228
-0.025342
-0.025342
0.014941
0.006885
-0.009228
0.014941
-0.017285
0.014941
0.039111
-0.033398
-0.001172
0.135791
0.184131
0.208301
0.192188
0.135791
0.119678
0.087451
0.039111
0.022998
0.014941
-0.009228
-0.025342
-0.033398
-0.033398
-0.033398
-0.017285
-0.049512
-0.017285
-0.033398
-0.057568
-0.041455
-0.001172
-0.049512
-0.041455
-0.017285
-0.057568
-0.041455
-0.033398
0.031055
0.200244
0.313037
0.337207
0.377490
0.377490
0.385547
0.369434
0.296924
0.264697
0.208301
0.151904
0.127734
0.103564
0.095508
0.071338
0.055225
0.006885
0.006885
-0.001172
-0.017285
-0.017285
-0.033398
-0.017285
-0.017285
-0.033398
-0.017285
-0.017285
-0.017285
-0.009228
-0.025342
-0.017285
-0.017285
-0.033398
0.006885
-0.001172
0.031055
-0.025342
-0.009228
-0.009228
-0.009228
-0.009228
-0.009228
-0.001172
0.006885
0.006885
-0.001172
-0.025342
-0.017285
-0.017285
0.022998
-0.009228
-0.009228
0.014941
-0.001172
0.014941
0.006885
0.014941
0.039111
-0.009228
-0.025342
0.039111
0.039111
-0.017285
-0.097852
-0.226758
-0.347607
-0.371777
-0.395947
-0.412061
-0.428174
-0.387891
-0.291211
-0.283154
-0.210645
-0.194531
-0.138135
-0.073682
-0.073682
-0.081738
-0.049512
-0.073682
-0.001172
-0.017285
0.014941
0.039111
0.014941
0.014941
0.022998
0.031055
0.014941
-0.001172
0.006885
0.063281
0.006885
-0.009228
0.006885
-0.001172
0.014941
-0.001172
-0.009228
0.031055
-0.009228
-0.001172
-0.009228
-0.009228
0.006885
-0.001172
-0.017285
-0.041455
-0.017285
0.006885
-0.025342
-0.033398
-0.033398
-0.041455
-0.017285
-0.017285
-0.025342
-0.017285
-0.033398
-0.049512
-0.001172
-0.041455
-0.049512
-0.009228
-0.033398
-0.041455
0.047168
0.264697
0.474170
0.562793
0.586963
0.562793
0.562793
0.522510
0.474170
0.369434
0.256641
0.192188
0.143848
0.135791
0.087451
0.079395
0.014941
0.039111
0.014941
0.006885
-0.033398
-0.041455
-0.009228
-0.009228
-0.073682
-0.017285
-0.017285
-0.009228
0.006885
0.022998
-0.001172
-0.041455
-0.017285
-0.033398
-0.017285
-0.033398
-0.033398
0.022998
-0.009228
-0.017285
-0.009228
0.006885
-0.009228
-0.001172
-0.001172
0.006885
-0.017285
-0.017285
-0.009228
-0.025342
-0.009228
0.031055
0.022998
-0.009228
-0.001172
-0.001172
-0.009228
-0.001172
-0.001172
0.022998
0.022998
0.031055
-0.001172
-0.001172
-0.057568
-0.234814
-0.347607
-0.363721
-0.371777
-0.347607
-0.363721
-0.379834
-0.331494
-0.258984
-0.218701
-0.178418
-0.089795
-0.089795
-0.081738
-0.057568
-0.033398
-0.041455
-0.033398
0.006885
-0.009228
-0.001172
0.006885
0.014941
0.006885
-0.001172
0.006885
-0.001172
-0.009228
-0.009228
0.014941
-0.017285
-0.001172
0.014941
-0.017285
-0.049512
0.022998
-0.001172
-0.017285
-0.001172
-0.049512
-0.001172
-0.017285
-0.017285
-0.017285
-0.025342
-0.009228
-0.017285
-0.001172
-0.001172
-0.009228
-0.009228
-0.017285
-0.001172
-0.001172
-0.017285
-0.065625
-0.025342
-0.049512
-0.025342
0.006885
-0.017285
-0.009228
-0.009228
0.095508
0.224414
0.337207
0.304980
0.369434
0.361377
0.361377
0.337207
0.296924
0.248584
0.200244
0.135791
0.087451
0.071338
0.055225
0.039111
0.014941
-0.017285
-0.025342
-0.033398
-0.041455
-0.033398
-0.049512
-0.033398
-0.025342
-0.049512
0.031055
0.103564
0.200244
0.216357
0.224414
0.200244
0.168018
0.119678
0.095508
0.047168
0.055225
0.031055
0.047168
0.022998
-0.017285
-0.017285
-0.009228
0.014941
-0.025342
0.006885
0.031055
-0.009228
-0.009228
-0.001172
0.014941
0.031055
0.006885
-0.009228
-0.001172
0.014941
0.006885
0.006885
0.014941
-0.009228
0.014941
0.022998
0.022998
-0.001172
-0.081738
-0.275098
-0.339551
-0.379834
-0.387891
-0.379834
-0.412061
-0.387891
-0.331494
-0.275098
-0.210645
-0.146191
-0.105908
-0.113965
-0.065625
-0.073682
-0.065625
-0.041455
-0.017285
