2.750913
2.903989
1.598813
0.809262
0.374204
0.156674
0.084164
0.068051
0.019711
-0.036685
-0.004459
-0.004459
-0.012515
-0.028628
-0.028628
-0.028628
-0.028628
-0.004459
-0.012515
0.011655
-0.028628
-0.028628
0.011655
-0.012515
-0.020572
0.011655
-0.004459
0.003598
-0.141421
-0.431461
-0.536197
-0.632877
-0.705386
-0.753726
-0.745669
-0.665103
-0.624820
-0.616763
-0.600650
-0.552310
-0.536197
-0.503970
-0.528140
-0.512027
-0.447574
-0.383121
-0.318668
-0.270328
-0.278384
-0.213931
-0.189761
-0.149478
-0.189761
-0.133365
-0.109195
-0.093082
-0.052798
-0.052798
-0.036685
0.003598
0.019711
-0.012515
0.003598
-0.020572
-0.012515
0.027768
-0.020572
-0.036685
-0.004459
-0.020572
-0.012515
-0.036685
-0.028628
-0.044742
-0.044742
-0.052798
-0.004459
-0.093082
-0.052798
-0.044742
-0.076968
-0.028628
-0.060855
-0.020572
-0.068912
-0.028628
-0.068912
-0.068912
-0.036685
-0.052798
-0.028628
-0.044742
-0.044742
-0.036685
0.124448
0.341977
0.559506
0.664243
0.632016
0.632016
0.575620
0.575620
0.567563
0.535336
0.495053
0.470883
0.446713
0.462827
0.406430
0.350034
0.301694
0.253354
0.205014
0.196957
0.188901
0.164731
0.140561
0.132504
0.076108
0.100278
0.068051
0.011655
-0.004459
0.011655
0.011655
-0.020572
-0.012515
-0.020572
-0.020572
-0.020572
-0.044742
-0.012515
0.003598
-0.012515
-0.020572
-0.028628
-0.052798
-0.012515
-0.036685
-0.020572
-0.004459
-0.012515
-0.028628
0.003598
-0.012515
-0.012515
-0.012515
-0.028628
-0.020572
-0.012515
0.011655
-0.012515
0.027768
0.116391
0.221127
0.229184
0.229184
0.196957
0.132504
0.068051
-0.149478
-0.391177
-0.503970
-0.520084
-0.552310
-0.544253
-0.536197
-0.479800
-0.455630
-0.487857
-0.471744
-0.423404
-0.375064
-0.318668
-0.278384
-0.254214
-0.221988
-0.157535
-0.149478
-0.141421
-0.109195
-0.109195
-0.060855
-0.052798
-0.028628
-0.028628
-0.028628
0.011655
-0.004459
0.019711
0.019711
0.011655
-0.004459
-0.020572
0.019711
-0.012515
-0.012515
-0.028628
0.011655
-0.028628
-0.004459
-0.020572
-0.020572
-0.028628
-0.044742
-0.044742
-0.020572
-0.052798
-0.060855
-0.052798
-0.036685
-0.020572
-0.004459
-0.068912
-0.052798
-0.036685
-0.052798
-0.044742
-0.052798
-0.020572
-0.028628
-0.044742
-0.028628
-0.036685
-0.044742
-0.028628
0.076108
0.261411
0.390317
0.454770
0.470883
0.430600
0.414487
0.398373
0.382260
0.390317
0.325864
0.293637
0.221127
0.196957
0.148618
0.108334
0.132504
0.076108
0.051938
0.027768
0.035825
-0.020572
0.011655
-0.028628
-0.020572
-0.036685
-0.012515
-0.004459
-0.052798
-0.028628
-0.036685
-0.020572
-0.028628
-0.028628
-0.028628
-0.028628
-0.012515
-0.028628
-0.028628
-0.036685
-0.012515
-0.036685
-0.020572
-0.004459
-0.004459
-0.020572
-0.012515
0.011655
0.003598
0.027768
-0.004459
0.003598
0.019711
-0.020572
0.003598
-0.028628
-0.004459
0.011655
0.019711
0.019711
-0.012515
-0.004459
-0.036685
-0.012515
-0.044742
-0.278384
-0.383121
-0.447574
-0.479800
-0.463687
-0.423404
-0.415347
-0.423404
-0.415347
-0.367007
-0.310611
-0.254214
-0.205875
-0.181705
-0.133365
-0.004459
0.100278
0.148618
0.188901
0.164731
0.116391
0.084164
0.059995
0.027768
0.043881
0.027768
-0.004459
0.035825
-0.004459
0.003598
0.011655
0.019711
0.011655
-0.004459
-0.004459
-0.012515
0.003598
-0.036685
-0.020572
-0.004459
-0.044742
-0.028628
-0.060855
-0.028628
-0.036685
-0.020572
-0.044742
-0.020572
-0.036685
-0.052798
-0.052798
-0.036685
-0.036685
-0.020572
-0.044742
-0.012515
-0.044742
-0.020572
-0.036685
-0.060855
-0.044742
-0.036685
-0.004459
-0.012515
0.180844
0.309750
0.430600
0.438657
0.398373
0.406430
0.366147
0.406430
0.341977
0.325864
0.269467
0.221127
0.148618
0.148618
0.092221
0.084164
0.076108
0.059995
0.051938
0.027768
-0.028628
0.003598
-0.036685
-0.044742
-0.036685
-0.036685
-0.028628
-0.036685
-0.028628
-0.020572
0.019711
-0.004459
0.019711
-0.020572
-0.020572
-0.052798
-0.028628
0.011655
0.011655
-0.012515
-0.012515
0.011655
0.003598
-0.036685
0.003598
0.019711
-0.004459
0.003598
0.003598
0.011655
-0.012515
-0.004459
-0.004459
0.003598
-0.004459
-0.012515
0.003598
0.011655
0.019711
-0.012515
-0.004459
0.003598
0.027768
-0.012515
-0.165591
-0.318668
-0.399234
-0.471744
-0.463687
-0.423404
-0.447574
-0.415347
-0.391177
-0.342837
-0.254214
-0.221988
-0.165591
-0.149478
-0.125308
-0.093082
-0.117252
-0.076968
-0.052798
-0.044742
0.003598
-0.012515
-0.012515
-0.012515
-0.020572
0.019711
-0.012515
-0.004459
-0.020572
-0.012515
0.003598
-0.012515
-0.012515
-0.020572
0.019711
-0.036685
-0.012515
-0.044742
-0.012515
-0.036685
-0.044742
-0.036685
-0.052798
0.019711
0.156674
0.221127
0.196957
0.180844
0.156674
0.156674
0.051938
0.027768
-0.004459
-0.028628
0.003598
-0.028628
-0.028628
-0.044742
-0.004459
-0.028628
-0.012515
-0.052798
-0.028628
-0.012515
0.116391
0.285581
0.422543
0.398373
0.406430
0.398373
0.382260
0.422543
0.350034
0.325864
0.269467
0.205014
0.164731
0.124448
0.092221
0.100278
0.084164
0.035825
0.003598
-0.004459
-0.020572
-0.012515
-0.052798
-0.052798
-0.012515
-0.028628
-0.044742
-0.036685
-0.028628
-0.044742
-0.036685
-0.004459
-0.012515
-0.028628
-0.036685
-0.012515
-0.012515
-0.028628
-0.004459
-0.004459
-0.004459
-0.012515
-0.004459
-0.004459
0.003598
0.043881
0.003598
0.019711
0.019711
0.011655
0.003598
0.003598
-0.004459
0.019711
-0.004459
-0.012515
-0.004459
0.011655
0.003598
0.003598
-0.028628
0.011655
0.011655
0.019711
-0.101138
-0.270328
-0.407291
-0.463687
-0.423404
-0.375064
-0.391177
-0.407291
-0.383121
-0.310611
-0.294498
-0.189761
-0.173648
-0.141421
-0.117252
-0.093082
-0.052798
-0.044742
-0.052798
-0.020572
-0.004459
-0.004459
-0.012515
0.011655
0.019711
0.019711
0.003598
0.027768
0.019711
-0.004459
0.003598
-0.012515
-0.020572
-0.012515
-0.012515
-0.012515
0.003598
-0.012515
-0.004459
0.011655
-0.020572
-0.020572
-0.020572
-0.036685
-0.052798
-0.044742
-0.044742
-0.036685
-0.028628
-0.036685
-0.036685
-0.044742
-0.020572
-0.052798
-0.036685
-0.028628
-0.068912
-0.028628
-0.028628
-0.052798
-0.044742
-0.052798
-0.044742
-0.036685
0.108334
0.253354
0.438657
0.607846
0.656186
0.607846
0.543393
0.478940
0.462827
0.350034
0.293637
0.221127
0.196957
0.132504
0.124448
0.076108
0.076108
0.051938
0.051938
0.011655
0.003598
-0.036685
-0.036685
-0.052798
-0.044742
-0.044742
-0.044742
-0.052798
-0.036685
-0.028628
-0.028628
-0.028628
-0.028628
0.003598
0.011655
0.043881
0.011655
-0.028628
0.019711
-0.028628
-0.020572
-0.012515
-0.012515
-0.004459
-0.020572
-0.012515
-0.012515
-0.004459
0.027768
0.011655
-0.020572
-0.028628
0.003598
-0.028628
-0.004459
0.003598
-0.004459
0.027768
-0.028628
0.011655
-0.012515
0.003598
-0.004459
-0.020572
-0.093082
-0.278384
-0.407291
-0.399234
-0.423404
-0.407291
-0.383121
-0.447574
-0.367007
-0.326724
-0.246158
-0.181705
-0.157535
-0.141421
-0.101138
-0.117252
-0.068912
-0.028628
-0.012515
-0.012515
-0.044742
0.003598
0.027768
0.043881
0.019711
0.011655
0.003598
0.003598
0.011655
0.019711
0.011655
-0.012515
-0.004459
0.011655
-0.012515
-0.012515
-0.036685
-0.028628
-0.020572
-0.004459
-0.020572
-0.020572
-0.012515
-0.044742
-0.028628
-0.036685
-0.036685
-0.044742
-0.028628
-0.020572
-0.036685
-0.044742
-0.044742
-0.036685
-0.068912
-0.044742
-0.020572
-0.020572
-0.012515
0.003598
-0.036685
-0.028628
-0.012515
-0.020572
0.116391
0.317807
0.374204
0.414487
0.398373
0.382260
0.390317
0.366147
0.390317
0.293637
0.245297
0.237241
0.164731
0.116391
0.108334
0.076108
0.035825
0.051938
0.027768
0.011655
-0.012515
-0.004459
-0.004459
-0.028628
-0.028628
-0.004459
-0.020572
-0.028628
-0.036685
-0.028628
-0.036685
-0.012515
0.108334
0.180844
0.180844
0.213071
0.172788
0.156674
0.051938
0.059995
0.051938
0.019711
0.035825
0.003598
0.011655
-0.004459
0.027768
-0.004459
0.011655
0.003598
0.019711
0.003598
0.003598
-0.012515
-0.020572
0.011655
0.035825
-0.012515
0.003598
0.027768
0.003598
-0.004459
0.011655
0.003598
-0.141421
-0.270328
-0.407291
-0.431461
-0.399234
-0.399234
-0.358951
-0.423404
-0.367007
-0.334781
-0.278384
-0.213931
-0.173648
-0.157535
-0.117252
-0.109195
-0.085025
-0.060855
-0.044742
0.011655
-0.004459
-0.028628
-0.004459
0.003598
0.019711
-0.012515
0.019711
0.035825
0.003598
-0.004459
-0.020572
0.003598
-0.012515
0.003598
-0.036685
-0.004459
-0.020572
0.019711
-0.020572
-0.028628
0.027768
-0.020572
-0.012515
-0.012515
0.003598
-0.036685
-0.044742
-0.020572
-0.044742
-0.028628
-0.012515
-0.012515
-0.036685
-0.044742
-0.020572
-0.068912
-0.020572
-0.004459
-0.036685
-0.052798
-0.020572
0.011655
-0.028628
-0.036685
0.132504
0.301694
0.382260
0.446713
0.414487
0.398373
0.358090
0.366147
0.382260
0.301694
0.221127
0.213071
0.148618
0.124448
0.100278
0.100278
0.068051
0.051938
-0.012515
0.027768
-0.004459
-0.004459
-0.012515
-0.044742
-0.020572
-0.028628
-0.012515
-0.036685
-0.028628
-0.004459
-0.044742
-0.036685
-0.028628
-0.004459
-0.036685
-0.004459
0.043881
-0.012515
-0.012515
-0.004459
-0.012515
-0.012515
-0.020572
-0.012515
-0.028628
-0.004459
0.003598
0.011655
0.019711
0.003598
0.011655
0.019711
0.003598
0.003598
-0.012515
-0.028628
0.003598
0.084164
0.213071
0.237241
0.237241
0.213071
0.180844
0.148618
-0.068912
-0.278384
-0.383121
-0.391177
-0.391177
-0.375064
-0.375064
-0.391177
-0.326724
-0.302554
-0.238101
-0.173648
-0.141421
-0.117252
-0.117252
-0.093082
-0.101138
-0.052798
-0.028628
-0.028628
-0.028628
0.019711
0.011655
0.035825
0.019711
0.003598
-0.028628
0.011655
0.019711
0.043881
0.027768
0.027768
0.011655
-0.012515
0.011655
-0.020572
0.003598
0.027768
0.019711
-0.028628
-0.004459
-0.004459
-0.004459
-0.012515
-0.004459
-0.012515
-0.012515
-0.020572
-0.028628
-0.020572
-0.028628
-0.012515
0.011655
-0.044742
-0.028628
0.011655
-0.004459
-0.012515
0.003598
-0.044742
-0.028628
-0.028628
-0.004459
-0.004459
0.164731
0.333920
0.374204
0.406430
0.366147
0.382260
0.422543
0.398373
0.341977
0.277524
0.237241
0.172788
0.148618
0.100278
0.108334
0.084164
0.011655
0.043881
-0.020572
0.035825
-0.012515
-0.020572
-0.020572
-0.052798
-0.044742
-0.036685
-0.036685
-0.004459
-0.020572
0.035825
-0.004459
-0.020572
-0.012515
-0.020572
-0.004459
0.019711
-0.004459
-0.012515
-0.020572
-0.028628
-0.020572
-0.004459
0.019711
0.003598
-0.004459
-0.004459
0.011655
-0.012515
0.003598
-0.020572
0.019711
0.027768
0.019711
0.011655
-0.020572
-0.012515
0.011655
0.003598
0.027768
0.011655
0.027768
-0.012515
0.003598
-0.028628
-0.149478
-0.350894
-0.439517
-0.431461
-0.423404
-0.431461
-0.407291
-0.391177
-0.375064
-0.294498
-0.221988
-0.181705
-0.149478
-0.141421
-0.133365
-0.125308
-0.109195
-0.093082
-0.052798
-0.068912
-0.012515
0.035825
0.164731
0.237241
0.237241
0.213071
0.188901
0.132504
0.084164
0.043881
0.043881
0.027768
-0.004459
0.003598
-0.004459
0.019711
-0.028628
-0.028628
0.027768
-0.020572
0.011655
-0.012515
-0.004459
-0.036685
-0.020572
-0.020572
-0.036685
-0.060855
-0.036685
-0.036685
0.011655
-0.028628
-0.012515
-0.036685
-0.012515
-0.004459
-0.044742
-0.044742
-0.036685
-0.012515
-0.044742
-0.028628
-0.068912
0.003598
0.221127
0.301694
0.398373
0.422543
0.366147
0.350034
0.374204
0.325864
0.317807
0.285581
0.221127
0.164731
0.140561
0.124448
0.076108
0.084164
0.043881
0.043881
-0.004459
0.027768
-0.036685
-0.020572
-0.036685
-0.012515
-0.020572
-0.012515
-0.028628
-0.020572
0.011655
-0.012515
0.003598
-0.012515
-0.036685
-0.044742
0.011655
-0.044742
-0.004459
0.027768
-0.020572
0.011655
0.019711
0.003598
-0.004459
0.011655
0.019711
-0.004459
-0.012515
-0.012515
0.003598
-0.004459
0.019711
0.011655
0.003598
0.003598
-0.004459
-0.004459
0.011655
-0.004459
0.003598
0.043881
-0.004459
0.011655
0.003598
-0.012515
-0.205875
-0.350894
-0.358951
-0.431461
-0.423404
-0.399234
-0.415347
-0.391177
-0.367007
-0.294498
-0.205875
-0.157535
-0.165591
-0.141421
-0.117252
-0.068912
-0.085025
-0.028628
-0.052798
-0.028628
-0.036685
-0.012515
-0.012515
0.003598
0.011655
0.011655
0.019711
-0.028628
0.011655
-0.004459
-0.012515
0.003598
0.011655
0.027768
-0.020572
0.003598
-0.036685
-0.036685
-0.036685
-0.060855
-0.028628
-0.044742
-0.012515
-0.044742
0.003598
0.148618
0.221127
0.221127
0.156674
0.148618
0.100278
0.035825
0.019711
0.011655
0.019711
0.003598
0.011655
-0.020572
-0.004459
-0.020572
-0.028628
-0.060855
0.003598
0.011655
0.172788
0.325864
0.374204
0.374204
0.398373
0.366147
0.374204
0.350034
0.341977
0.293637
0.205014
0.172788
0.116391
0.092221
0.076108
0.059995
0.051938
0.027768
-0.012515
0.027768
-0.012515
-0.004459
-0.012515
-0.052798
-0.020572
-0.028628
-0.036685
-0.004459
-0.028628
0.019711
-0.020572
-0.052798
0.003598
0.003598
-0.004459
-0.020572
-0.020572
-0.012515
-0.004459
-0.020572
-0.012515
-0.004459
0.027768
0.027768
-0.028628
0.035825
0.003598
-0.004459
-0.004459
0.003598
0.027768
0.011655
0.003598
0.003598
0.003598
-0.012515
0.011655
0.035825
0.003598
0.003598
-0.004459
0.019711
0.003598
-0.052798
-0.173648
-0.350894
-0.439517
-0.399234
-0.423404
-0.423404
-0.415347
-0.399234
-0.334781
-0.270328
-0.181705
-0.205875
-0.149478
-0.109195
-0.076968
-0.068912
-0.068912
-0.052798
-0.036685
-0.020572
-0.012515
-0.004459
0.019711
0.027768
0.003598
-0.020572
0.011655
0.011655
-0.004459
-0.004459
0.011655
0.003598
0.003598
-0.012515
-0.020572
-0.004459
0.011655
0.011655
-0.004459
-0.004459
-0.044742
-0.020572
-0.036685
-0.004459
0.011655
-0.044742
-0.020572
0.003598
-0.044742
-0.044742
-0.036685
0.003598
-0.012515
0.003598
0.003598
-0.028628
-0.036685
-0.012515
-0.060855
-0.044742
-0.036685
-0.028628
-0.068912
0.043881
0.213071
0.325864
0.406430
0.414487
0.350034
0.341977
0.358090
0.317807
0.285581
0.221127
0.269467
0.374204
0.366147
0.341977
0.293637
0.245297
0.172788
0.124448
0.084164
0.019711
0.019711
-0.020572
0.003598
-0.004459
-0.020572
-0.028628
-0.012515
-0.004459
-0.028628
-0.004459
-0.020572
-0.036685
-0.044742
-0.028628
-0.052798
-0.004459
0.003598
-0.004459
0.019711
-0.020572
-0.004459
0.003598
-0.020572
-0.020572
-0.012515
-0.028628
0.019711
-0.004459
0.003598
0.003598
0.003598
0.027768
0.003598
0.003598
0.011655
0.043881
0.003598
-0.028628
0.011655
0.003598
-0.004459
-0.004459
-0.012515
-0.068912
-0.246158
-0.367007
-0.399234
-0.447574
-0.439517
-0.415347
-0.415347
-0.407291
-0.342837
-0.278384
-0.197818
-0.165591
-0.149478
-0.133365
-0.093082
-0.109195
-0.060855
-0.044742
-0.044742
-0.036685
-0.012515
-0.012515
-0.012515
0.011655
0.035825
0.059995
-0.004459
-0.012515
0.027768
0.003598
-0.004459
-0.012515
0.003598
-0.004459
-0.028628
-0.012515
0.003598
-0.012515
-0.020572
-0.020572
-0.036685
-0.020572
-0.012515
0.003598
-0.028628
0.019711
-0.020572
-0.004459
0.011655
-0.052798
-0.028628
-0.028628
-0.028628
-0.020572
-0.036685
-0.036685
-0.020572
-0.044742
-0.020572
-0.020572
-0.044742
-0.044742
-0.052798
0.043881
0.221127
0.366147
0.430600
0.414487
0.406430
0.382260
0.350034
0.374204
0.317807
0.253354
0.196957
0.124448
0.108334
0.100278
0.068051
0.051938
0.035825
0.027768
-0.012515
-0.020572
-0.004459
-0.020572
-0.020572
-0.052798
-0.036685
-0.004459
-0.036685
-0.028628
-0.036685
-0.044742
-0.052798
-0.028628
-0.060855
-0.036685
-0.012515
0.059995
0.188901
0.229184
0.269467
0.188901
0.180844
0.116391
0.059995
0.068051
0.051938
0.043881
0.035825
0.035825
-0.004459
0.003598
-0.004459
0.027768
-0.012515
0.027768
-0.004459
-0.004459
0.019711
0.003598
-0.004459
0.003598
0.003598
0.011655
-0.020572
-0.076968
-0.278384
-0.383121
-0.423404
-0.407291
-0.415347
-0.383121
-0.383121
-0.407291
-0.350894
-0.286441
-0.205875
-0.149478
-0.165591
-0.109195
-0.093082
-0.085025
-0.060855
-0.060855
-0.012515
-0.028628
-0.012515
-0.004459
-0.004459
0.003598
0.011655
0.011655
-0.012515
-0.012515
0.019711
0.051938
-0.020572
0.019711
-0.020572
-0.012515
-0.004459
-0.012515
-0.012515
-0.036685
-0.036685
-0.020572
-0.020572
-0.004459
-0.028628
-0.028628
-0.028628
-0.044742
-0.012515
-0.044742
-0.028628
-0.020572
-0.028628
-0.036685
-0.028628
-0.012515
-0.044742
-0.020572
-0.020572
-0.028628
-0.004459
-0.028628
-0.028628
-0.060855
-0.012515
0.100278
0.253354
0.358090
0.374204
0.382260
0.382260
0.390317
0.366147
0.350034
0.293637
0.229184
0.172788
0.164731
0.108334
0.092221
0.076108
0.084164
0.043881
0.003598
-0.020572
-0.036685
-0.028628
-0.028628
-0.020572
-0.020572
-0.020572
-0.044742
-0.052798
-0.020572
-0.036685
-0.052798
-0.036685
-0.004459
-0.012515
-0.012515
-0.012515
-0.028628
0.003598
0.011655
-0.004459
0.011655
0.003598
-0.004459
-0.012515
-0.028628
-0.004459
-0.036685
-0.028628
-0.036685
0.003598
-0.036685
-0.012515
0.003598
0.011655
0.011655
0.027768
-0.028628
0.003598
-0.020572
-0.004459
-0.012515
0.011655
-0.012515
-0.028628
-0.036685
-0.109195
-0.141421
-0.197818
-0.221988
-0.205875
-0.238101
-0.286441
-0.294498
-0.286441
-0.205875
-0.189761
-0.165591
-0.149478
-0.109195
-0.036685
-0.085025
-0.060855
-0.044742
-0.036685
-0.036685
-0.020572
0.019711
0.011655
0.011655
-0.004459
0.003598
-0.020572
0.019711
-0.020572
-0.004459
-0.012515
-0.004459
0.003598
0.027768
-0.028628
0.019711
-0.004459
-0.028628
0.019711
-0.036685
-0.020572
0.003598
-0.004459
-0.012515
-0.020572
-0.036685
-0.044742
-0.028628
-0.020572
-0.020572
-0.052798
-0.028628
-0.044742
-0.028628
0.003598
-0.004459
-0.012515
-0.036685
-0.020572
-0.012515
-0.052798
-0.012515
-0.028628
0.059995
0.253354
0.350034
0.406430
0.382260
0.374204
0.382260
0.382260
0.382260
0.293637
0.245297
0.229184
0.156674
0.116391
0.108334
0.068051
0.116391
0.035825
0.003598
0.003598
-0.004459
0.003598
-0.004459
-0.020572
-0.012515
-0.020572
-0.004459
0.003598
-0.012515
-0.052798
-0.036685
-0.036685
0.003598
0.003598
0.003598
0.011655
-0.028628
0.011655
0.003598
-0.004459
-0.012515
-0.020572
0.003598
0.027768
0.043881
0.003598
0.003598
0.019711
0.003598
-0.012515
0.011655
-0.004459
0.003598
0.011655
0.043881
0.035825
0.011655
0.035825
0.027768
0.019711
0.011655
-0.036685
-0.012515
0.019711
-0.085025
-0.270328
-0.383121
-0.431461
-0.415347
-0.391177
-0.399234
-0.431461
-0.350894
-0.334781
-0.230044
-0.197818
-0.189761
-0.133365
-0.117252
-0.076968
-0.052798
-0.085025
-0.044742
-0.012515
0.019711
-0.020572
-0.012515
0.068051
0.188901
0.245297
0.261411
0.213071
0.196957
0.148618
0.132504
0.100278
0.051938
0.027768
0.011655
0.003598
0.003598
-0.012515
-0.020572
-0.004459
-0.028628
-0.044742
-0.020572
-0.020572
-0.004459
-0.028628
-0.004459
-0.012515
-0.028628
-0.012515
-0.028628
-0.044742
-0.028628
-0.020572
-0.028628
-0.036685
-0.036685
-0.044742
-0.020572
-0.028628
-0.036685
-0.020572
-0.036685
-0.020572
0.092221
0.261411
0.382260
0.398373
0.398373
0.398373
0.374204
0.374204
0.358090
0.285581
0.237241
0.172788
0.156674
0.116391
0.092221
0.092221
0.051938
0.051938
0.051938
-0.004459
-0.004459
-0.036685
-0.020572
-0.012515
-0.044742
0.011655
-0.044742
-0.012515
-0.036685
-0.036685
-0.012515
-0.020572
-0.052798
-0.036685
-0.028628
-0.004459
-0.060855
-0.004459
-0.020572
-0.028628
-0.004459
-0.028628
0.011655
-0.012515
0.011655
-0.004459
-0.012515
-0.004459
0.003598
-0.004459
-0.012515
-0.012515
0.019711
0.003598
0.027768
0.003598
0.019711
-0.004459
-0.004459
0.003598
0.011655
0.011655
0.003598
-0.004459
-0.125308
-0.262271
-0.383121
-0.423404
-0.407291
-0.415347
-0.407291
-0.391177
-0.342837
-0.278384
-0.262271
-0.205875
-0.165591
-0.093082
-0.060855
-0.068912
-0.068912
-0.060855
-0.020572
0.011655
-0.036685
0.035825
-0.004459
0.003598
0.003598
-0.020572
0.027768
0.027768
-0.004459
-0.020572
-0.004459
-0.004459
-0.004459
-0.004459
0.019711
0.011655
0.035825
0.011655
-0.020572
-0.020572
-0.036685
-0.036685
-0.052798
-0.028628
-0.028628
-0.028628
-0.044742
-0.028628
-0.068912
-0.052798
-0.036685
-0.012515
-0.036685
0.043881
0.164731
0.229184
0.221127
0.205014
0.140561
0.108334
0.051938
0.035825
0.027768
0.019711
0.156674
0.301694
0.390317
0.414487
0.422543
0.398373
0.358090
0.358090
0.358090
0.293637
0.213071
0.172788
0.132504
0.116391
0.100278
0.100278
0.068051
0.059995
0.019711
0.019711
0.011655
-0.020572
-0.036685
0.003598
-0.020572
-0.028628
-0.020572
-0.012515
-0.052798
-0.028628
-0.036685
-0.020572
-0.012515
0.019711
0.019711
0.011655
-0.020572
-0.004459
-0.012515
-0.004459
-0.012515
-0.028628
0.003598
-0.012515
-0.004459
0.011655
0.019711
-0.004459
0.027768
-0.004459
0.019711
-0.028628
-0.004459
0.011655
-0.004459
-0.012515
-0.012515
0.003598
-0.012515
0.011655
0.011655
-0.020572
0.011655
-0.004459
-0.141421
-0.334781
-0.383121
-0.391177
-0.399234
-0.399234
-0.375064
-0.375064
-0.367007
-0.294498
-0.221988
-0.173648
-0.173648
-0.141421
-0.117252
-0.085025
-0.076968
-0.044742
-0.028628
-0.012515
-0.020572
0.019711
0.003598
0.019711
0.027768
0.011655
-0.020572
-0.020572
-0.020572
-0.004459
-0.012515
-0.012515
-0.012515
0.011655
0.011655
-0.020572
-0.028628
-0.020572
0.003598
-0.012515
-0.012515
0.003598
-0.012515
-0.020572
-0.044742
-0.012515
-0.020572
-0.052798
-0.012515
-0.028628
-0.052798
-0.020572
-0.028628
-0.028628
-0.020572
-0.020572
-0.028628
-0.036685
-0.012515
-0.004459
-0.044742
-0.036685
-0.020572
0.019711
0.132504
0.285581
0.382260
0.414487
0.382260
0.382260
0.341977
0.358090
0.317807
0.245297
0.180844
0.164731
0.132504
0.116391
0.124448
0.245297
0.277524
0.245297
0.205014
0.180844
0.084164
0.076108
0.043881
0.011655
0.011655
-0.004459
-0.004459
0.011655
0.043881
0.019711
0.003598
-0.020572
0.011655
-0.036685
-0.012515
-0.004459
0.011655
0.027768
-0.012515
0.003598
0.003598
0.003598
0.003598
0.011655
0.019711
0.003598
-0.004459
0.019711
-0.020572
0.011655
-0.012515
0.011655
0.011655
0.003598
-0.004459
-0.012515
0.003598
0.011655
0.003598
0.003598
0.019711
0.035825
0.011655
-0.004459
-0.173648
-0.334781
-0.407291
-0.391177
-0.415347
-0.391177
-0.447574
-0.391177
-0.358951
-0.294498
-0.246158
-0.205875
-0.125308
-0.149478
-0.125308
-0.117252
-0.060855
-0.052798
-0.060855
-0.012515
-0.012515
0.043881
0.003598
0.003598
0.003598
-0.012515
-0.004459
0.043881
0.003598
0.019711
0.011655
0.003598
0.003598
-0.028628
-0.012515
-0.012515
-0.020572
-0.004459
-0.004459
-0.020572
-0.020572
-0.020572
-0.036685
-0.012515
-0.012515
-0.028628
-0.028628
-0.036685
-0.028628
-0.028628
-0.020572
-0.020572
-0.028628
-0.028628
-0.044742
-0.028628
-0.012515
-0.012515
-0.020572
-0.004459
-0.020572
-0.036685
-0.028628
0.003598
0.156674
0.317807
0.398373
0.406430
0.406430
0.390317
0.366147
0.366147
0.325864
0.253354
0.196957
0.188901
0.140561
0.108334
0.068051
0.059995
0.051938
0.035825
0.011655
0.003598
0.003598
-0.052798
-0.004459
-0.004459
-0.012515
-0.036685
-0.020572
-0.012515
-0.020572
-0.012515
-0.052798
-0.028628
-0.028628
-0.028628
-0.044742
-0.028628
-0.036685
-0.052798
-0.028628
-0.036685
-0.004459
-0.028628
0.019711
0.172788
0.205014
0.229184
0.237241
0.196957
0.180844
0.140561
0.100278
0.068051
0.043881
0.027768
0.035825
0.027768
0.027768
0.019711
0.027768
0.003598
0.027768
0.035825
-0.004459
-0.052798
-0.213931
-0.375064
-0.447574
-0.447574
-0.415347
-0.407291
-0.399234
-0.391177
-0.358951
-0.294498
-0.230044
-0.197818
-0.165591
-0.125308
-0.133365
-0.101138
-0.085025
-0.028628
-0.060855
-0.036685
-0.044742
-0.004459
0.019711
0.027768
0.003598
-0.004459
0.003598
0.019711
-0.020572
0.011655
0.003598
0.011655
-0.028628
0.003598
-0.028628
-0.004459
0.003598
-0.004459
-0.036685
-0.020572
-0.012515
0.019711
-0.012515
-0.020572
0.011655
-0.012515
-0.044742
-0.028628
-0.012515
0.003598
0.011655
-0.020572
-0.044742
-0.020572
-0.028628
-0.004459
-0.020572
-0.028628
-0.028628
-0.044742
-0.028628
-0.028628
-0.052798
0.027768
0.180844
0.341977
0.366147
0.414487
0.382260
0.358090
0.366147
0.366147
0.325864
0.237241
0.205014
0.180844
0.124448
0.100278
0.076108
0.076108
0.092221
0.027768
0.035825
0.011655
0.003598
-0.020572
0.003598
0.003598
-0.028628
-0.004459
-0.028628
-0.060855
-0.012515
-0.020572
-0.012515
-0.020572
-0.028628
-0.012515
-0.028628
-0.004459
-0.052798
0.003598
-0.028628
-0.004459
-0.012515
-0.020572
0.003598
-0.012515
-0.044742
0.027768
-0.004459
-0.004459
0.003598
0.011655
0.011655
0.003598
-0.020572
-0.028628
0.019711
0.019711
0.043881
-0.004459
-0.004459
-0.028628
0.011655
-0.028628
-0.028628
-0.020572
-0.221988
-0.334781
-0.302554
-0.221988
-0.181705
-0.165591
-0.189761
-0.230044
-0.221988
-0.221988
-0.165591
-0.133365
-0.149478
-0.101138
-0.101138
-0.076968
-0.068912
-0.076968
-0.028628
-0.036685
-0.036685
-0.012515
-0.012515
0.019711
-0.012515
0.011655
-0.012515
0.011655
0.027768
-0.012515
-0.004459
0.027768
0.019711
-0.012515
-0.012515
-0.012515
-0.020572
-0.004459
-0.012515
0.003598
-0.044742
-0.012515
-0.036685
-0.028628
-0.004459
-0.020572
-0.052798
-0.028628
-0.012515
-0.012515
-0.044742
-0.036685
-0.028628
-0.020572
-0.044742
-0.028628
-0.012515
-0.036685
-0.028628
-0.044742
-0.036685
-0.012515
-0.028628
0.027768
0.205014
0.317807
0.398373
0.414487
0.374204
0.333920
0.366147
0.358090
0.325864
0.269467
0.205014
0.140561
0.124448
0.124448
0.076108
0.076108
0.043881
0.043881
0.011655
-0.004459
0.003598
-0.060855
-0.028628
-0.012515
-0.028628
-0.028628
-0.036685
-0.020572
-0.020572
-0.004459
0.003598
-0.028628
-0.036685
-0.012515
-0.028628
-0.036685
-0.012515
-0.004459
0.027768
-0.020572
0.011655
0.027768
-0.012515
0.019711
0.011655
0.003598
0.011655
-0.020572
0.003598
-0.004459
0.011655
0.043881
0.011655
0.003598
0.019711
0.011655
0.019711
0.003598
-0.004459
0.035825
-0.012515
0.027768
0.003598
-0.060855
-0.181705
-0.342837
-0.447574
-0.423404
-0.399234
-0.391177
-0.342837
-0.375064
-0.326724
-0.254214
-0.221988
-0.173648
-0.165591
-0.133365
-0.101138
-0.117252
-0.044742
-0.060855
-0.020572
-0.012515
-0.028628
0.011655
0.011655
-0.012515
0.019711
-0.012515
-0.028628
-0.004459
-0.004459
-0.012515
-0.036685
0.059995
0.188901
0.213071
0.213071
0.172788
0.140561
0.092221
0.100278
0.051938
0.011655
0.011655
-0.012515
-0.028628
-0.012515
-0.028628
-0.020572
-0.028628
-0.036685
-0.020572
-0.036685
-0.020572
-0.020572
0.003598
-0.028628
-0.028628
-0.052798
-0.028628
0.003598
-0.020572
-0.036685
-0.004459
-0.028628
0.051938
0.221127
0.341977
0.390317
0.398373
0.398373
0.358090
0.382260
0.366147
0.317807
0.269467
0.221127
0.148618
0.124448
0.108334
0.084164
0.076108
0.051938
0.068051
0.019711
0.019711
-0.028628
-0.052798
-0.020572
-0.036685
0.003598
-0.028628
-0.012515
-0.012515
0.035825
0.003598
-0.028628
0.011655
-0.012515
-0.020572
-0.044742
-0.036685
0.035825
-0.004459
-0.028628
0.019711
0.011655
-0.020572
0.011655
0.011655
-0.012515
0.027768
0.011655
0.019711
0.003598
-0.004459
0.027768
0.011655
0.035825
0.019711
-0.012515
0.011655
-0.004459
0.019711
0.003598
0.003598
0.011655
0.011655
0.011655
-0.060855
-0.230044
-0.367007
-0.455630
-0.415347
-0.399234
-0.383121
-0.399234
-0.391177
-0.358951
-0.262271
-0.205875
-0.189761
-0.133365
-0.133365
-0.085025
-0.109195
-0.076968
-0.060855
-0.020572
-0.020572
-0.004459
-0.004459
0.003598
-0.004459
0.003598
-0.012515
-0.004459
-0.004459
-0.012515
0.019711
0.003598
0.003598
0.003598
-0.012515
-0.004459
-0.012515
-0.044742
-0.020572
-0.028628
-0.028628
-0.004459
-0.020572
-0.036685
-0.012515
-0.028628
-0.028628
-0.060855
-0.052798
-0.044742
-0.052798
-0.028628
-0.044742
-0.036685
-0.020572
-0.052798
-0.052798
-0.004459
0.108334
0.164731
0.196957
0.196957
0.172788
0.092221
0.172788
0.366147
0.438657
0.478940
0.454770
0.406430
0.374204
0.374204
0.366147
0.333920
0.269467
0.221127
0.164731
0.116391
0.084164
0.092221
0.059995
0.084164
0.027768
0.019711
-0.028628
-0.020572
-0.020572
-0.004459
-0.020572
-0.020572
-0.044742
-0.028628
-0.012515
-0.036685
-0.004459
-0.028628
-0.012515
0.003598
-0.012515
-0.012515
-0.012515
-0.012515
0.003598
-0.012515
-0.020572
-0.012515
0.011655
0.011655
0.011655
0.003598
0.003598
0.003598
-0.004459
0.011655
0.003598
-0.004459
0.043881
0.027768
0.003598
0.003598
-0.004459
-0.004459
0.003598
-0.020572
0.011655
0.019711
0.003598
0.019711
-0.085025
-0.254214
-0.358951
-0.447574
-0.391177
-0.399234
-0.358951
-0.415347
-0.391177
-0.286441
-0.246158
-0.173648
-0.157535
-0.141421
-0.125308
-0.093082
-0.085025
-0.052798
-0.052798
0.003598
0.003598
-0.036685
0.043881
0.019711
0.011655
0.003598
-0.004459
0.027768
0.003598
0.059995
0.003598
0.003598
0.011655
0.003598
0.011655
0.019711
-0.020572
0.011655
-0.012515
-0.028628
0.003598
0.011655
-0.012515
0.003598
-0.012515
-0.028628
-0.012515
-0.012515
-0.020572
-0.012515
-0.004459
-0.028628
-0.012515
-0.012515
-0.052798
-0.044742
-0.036685
-0.052798
-0.004459
-0.044742
-0.028628
-0.012515
-0.020572
-0.028628
0.076108
0.229184
0.341977
0.374204
0.422543
0.406430
0.366147
0.366147
0.317807
0.301694
0.229184
0.205014
0.172788
0.132504
0.092221
0.051938
0.068051
0.019711
0.011655
-0.028628
-0.020572
-0.004459
0.124448
0.172788
0.213071
0.205014
0.188901
0.156674
0.116391
0.051938
0.051938
