-1.923666
-1.980062
-1.029379
-0.497640
-0.272055
-0.151205
-0.062582
-0.014242
0.001871
-0.038412
0.009928
0.001871
-0.006185
-0.022299
-0.030355
-0.006185
0.009928
-0.038412
-0.030355
-0.030355
-0.038412
-0.014242
0.122721
0.372477
0.541666
0.646403
0.662516
0.606119
0.686686
0.751139
0.662516
0.622233
0.549723
0.557779
0.565836
0.541666
0.509440
0.461100
0.444987
0.444987
0.428873
0.412760
0.324137
0.316080
0.227457
0.203287
0.187174
0.171061
0.171061
0.122721
0.098551
0.074381
0.042154
0.026041
-0.030355
0.098551
0.179117
0.219401
0.195231
0.195231
0.179117
0.082438
0.034098
0.050211
0.034098
0.066324
0.009928
-0.014242
0.034098
0.042154
0.058268
0.034098
0.050211
0.026041
0.026041
0.017985
0.026041
0.017985
0.009928
0.026041
0.026041
0.026041
0.042154
0.050211
0.026041
0.001871
0.017985
0.026041
0.050211
-0.014242
0.034098
0.042154
-0.272055
-0.457357
-0.562094
-0.537924
-0.578207
-0.537924
-0.537924
-0.537924
-0.505697
-0.465414
-0.449301
-0.425131
-0.392904
-0.360678
-0.272055
-0.231771
-0.191488
-0.175375
-0.151205
-0.135092
-0.127035
-0.118978
-0.094808
-0.054525
-0.062582
-0.030355
-0.022299
-0.030355
-0.038412
-0.006185
0.034098
0.001871
0.001871
-0.006185
0.009928
-0.022299
0.001871
0.001871
0.009928
0.017985
-0.006185
-0.014242
-0.022299
0.001871
-0.038412
0.009928
-0.006185
0.026041
-0.014242
-0.006185
-0.006185
-0.014242
0.001871
0.034098
-0.046469
0.001871
0.009928
-0.030355
-0.006185
-0.022299
0.017985
-0.006185
-0.022299
-0.030355
0.001871
0.163004
0.372477
0.428873
0.477213
0.501383
0.509440
0.485270
0.436930
0.444987
0.396647
0.388590
0.388590
0.340250
0.251627
0.219401
0.187174
0.187174
0.154947
0.122721
0.090494
0.066324
0.058268
0.001871
0.001871
-0.014242
-0.014242
-0.030355
-0.030355
-0.022299
0.001871
-0.014242
-0.046469
-0.022299
-0.014242
0.009928
-0.006185
-0.014242
0.017985
0.001871
0.009928
-0.022299
0.009928
-0.014242
0.009928
0.001871
0.017985
0.009928
-0.006185
0.034098
0.090494
0.219401
0.235514
0.259684
0.235514
0.211344
0.171061
0.122721
0.082438
0.042154
0.050211
0.017985
0.017985
0.042154
0.058268
0.034098
0.001871
-0.086752
-0.272055
-0.384847
-0.457357
-0.465414
-0.384847
-0.409017
-0.400961
-0.409017
-0.368734
-0.296224
-0.280111
-0.223715
-0.135092
-0.118978
-0.102865
-0.102865
-0.102865
-0.062582
-0.070638
-0.014242
-0.006185
-0.030355
0.001871
0.017985
0.026041
-0.014242
-0.030355
0.001871
-0.022299
-0.030355
-0.014242
0.009928
0.034098
-0.022299
0.009928
0.001871
0.009928
-0.030355
-0.006185
-0.038412
0.001871
0.017985
-0.022299
-0.030355
-0.054525
-0.014242
0.009928
-0.022299
-0.006185
-0.014242
0.017985
-0.022299
-0.038412
-0.054525
-0.014242
-0.022299
-0.038412
-0.054525
-0.046469
-0.014242
-0.006185
-0.046469
-0.038412
0.001871
0.219401
0.340250
0.404703
0.412760
0.396647
0.380533
0.348307
0.356363
0.332194
0.267740
0.243570
0.171061
0.130778
0.122721
0.114664
0.082438
0.082438
0.042154
0.009928
0.009928
-0.030355
-0.014242
-0.030355
0.001871
0.009928
-0.022299
-0.014242
-0.022299
-0.006185
0.017985
-0.022299
0.001871
-0.006185
-0.006185
0.009928
0.001871
-0.022299
0.009928
-0.006185
0.026041
0.009928
-0.006185
0.026041
0.001871
0.034098
0.026041
0.017985
0.009928
0.017985
0.009928
0.026041
0.009928
0.026041
-0.006185
0.050211
0.009928
-0.014242
0.001871
-0.006185
0.017985
-0.006185
-0.006185
-0.014242
-0.038412
-0.215658
-0.352621
-0.409017
-0.433187
-0.433187
-0.409017
-0.400961
-0.384847
-0.392904
-0.344564
-0.263998
-0.175375
-0.030355
0.050211
0.114664
0.114664
0.122721
0.130778
0.098551
0.098551
0.058268
0.050211
0.066324
0.050211
0.017985
0.009928
0.001871
0.009928
0.017985
0.034098
-0.022299
-0.006185
0.009928
0.009928
0.001871
0.009928
-0.038412
-0.022299
-0.006185
-0.038412
-0.014242
-0.014242
-0.022299
-0.006185
-0.006185
-0.030355
-0.046469
-0.038412
-0.022299
-0.006185
-0.054525
-0.014242
-0.022299
-0.046469
0.009928
-0.038412
-0.054525
0.001871
-0.022299
-0.006185
-0.014242
-0.014242
-0.046469
-0.014242
0.114664
0.283854
0.332194
0.380533
0.372477
0.348307
0.396647
0.340250
0.316080
0.243570
0.203287
0.171061
0.114664
0.106608
0.066324
0.066324
0.026041
0.009928
0.009928
-0.022299
-0.006185
-0.038412
-0.030355
-0.054525
-0.022299
-0.030355
-0.038412
-0.014242
-0.022299
-0.030355
-0.006185
-0.022299
-0.006185
-0.046469
-0.022299
0.001871
0.009928
0.001871
0.017985
0.009928
0.026041
-0.014242
0.009928
0.034098
0.009928
0.017985
0.026041
0.026041
0.042154
0.034098
0.034098
0.009928
0.034098
0.001871
0.001871
0.017985
0.034098
0.026041
0.026041
0.009928
-0.022299
-0.014242
0.009928
-0.014242
-0.143148
-0.288168
-0.384847
-0.409017
-0.400961
-0.384847
-0.409017
-0.368734
-0.360678
-0.280111
-0.207601
-0.175375
-0.143148
-0.118978
-0.110922
-0.070638
-0.102865
-0.062582
-0.030355
-0.022299
0.001871
-0.038412
-0.006185
0.009928
-0.022299
-0.006185
-0.006185
-0.030355
-0.014242
-0.006185
-0.014242
0.001871
-0.006185
-0.022299
-0.014242
-0.022299
-0.030355
0.066324
0.211344
0.227457
0.211344
0.195231
0.179117
0.098551
0.074381
0.034098
0.017985
0.026041
0.001871
0.034098
-0.030355
-0.014242
-0.006185
-0.046469
-0.030355
-0.022299
0.001871
-0.014242
-0.038412
-0.054525
-0.038412
0.009928
-0.038412
-0.030355
0.106608
0.251627
0.332194
0.388590
0.372477
0.348307
0.348307
0.364420
0.332194
0.235514
0.203287
0.138834
0.114664
0.074381
0.050211
0.074381
0.034098
0.017985
0.009928
-0.022299
-0.022299
-0.030355
-0.022299
-0.062582
-0.006185
-0.014242
-0.022299
-0.014242
-0.030355
0.017985
-0.014242
-0.022299
-0.022299
0.001871
-0.022299
-0.038412
0.001871
-0.046469
-0.022299
-0.022299
-0.022299
-0.014242
-0.006185
-0.006185
-0.006185
-0.014242
0.009928
0.009928
0.026041
-0.006185
0.017985
0.026041
0.017985
0.009928
0.026041
0.017985
0.034098
0.026041
-0.006185
0.034098
0.034098
0.026041
0.050211
0.042154
-0.110922
-0.280111
-0.360678
-0.384847
-0.400961
-0.400961
-0.400961
-0.392904
-0.344564
-0.247885
-0.239828
-0.175375
-0.159262
-0.070638
-0.070638
-0.078695
-0.054525
-0.046469
-0.022299
-0.038412
0.001871
0.017985
0.009928
0.009928
0.001871
0.017985
0.034098
0.026041
-0.006185
0.017985
0.026041
0.009928
0.009928
0.001871
-0.022299
-0.006185
0.001871
-0.046469
-0.006185
-0.022299
-0.006185
0.001871
-0.030355
0.001871
-0.006185
0.001871
-0.014242
-0.030355
0.009928
-0.014242
-0.022299
-0.046469
-0.038412
-0.062582
-0.054525
-0.022299
-0.070638
-0.054525
-0.038412
-0.046469
-0.038412
-0.054525
-0.030355
-0.062582
0.066324
0.283854
0.525553
0.590006
0.573893
0.565836
0.565836
0.509440
0.444987
0.332194
0.251627
0.203287
0.179117
0.114664
0.122721
0.090494
0.074381
0.042154
0.017985
-0.014242
0.001871
-0.054525
0.001871
0.001871
-0.022299
0.001871
-0.038412
-0.014242
-0.046469
-0.006185
0.001871
-0.014242
0.001871
-0.006185
0.001871
-0.014242
-0.006185
-0.014242
0.009928
-0.030355
-0.006185
0.017985
0.009928
0.017985
-0.006185
-0.014242
0.001871
-0.030355
0.001871
-0.014242
0.066324
0.009928
-0.014242
0.009928
0.001871
-0.030355
0.017985
0.034098
0.009928
-0.022299
0.001871
0.009928
0.026041
0.017985
-0.094808
-0.304281
-0.384847
-0.400961
-0.376791
-0.400961
-0.376791
-0.368734
-0.288168
-0.304281
-0.191488
-0.159262
-0.143148
-0.127035
-0.094808
-0.062582
-0.062582
-0.054525
-0.030355
-0.014242
-0.014242
-0.014242
0.009928
0.034098
0.042154
0.009928
-0.022299
0.017985
0.001871
-0.014242
0.001871
-0.006185
0.017985
0.026041
0.009928
-0.038412
0.001871
0.009928
0.009928
0.001871
-0.006185
0.001871
-0.038412
-0.006185
-0.030355
-0.006185
0.001871
-0.022299
-0.022299
-0.006185
-0.014242
-0.030355
-0.006185
-0.022299
-0.054525
-0.014242
-0.022299
0.009928
-0.062582
0.009928
0.001871
-0.054525
-0.030355
-0.014242
0.098551
0.251627
0.356363
0.356363
0.364420
0.372477
0.348307
0.356363
0.291910
0.267740
0.154947
0.138834
0.090494
0.074381
0.066324
0.090494
0.058268
-0.006185
-0.014242
-0.038412
-0.022299
-0.038412
-0.030355
-0.046469
-0.006185
0.146891
0.195231
0.211344
0.203287
0.154947
0.098551
0.058268
0.074381
0.058268
0.017985
0.001871
0.001871
0.026041
-0.022299
-0.014242
0.026041
0.009928
0.009928
-0.006185
-0.014242
0.001871
0.017985
0.026041
-0.006185
-0.014242
0.017985
-0.006185
0.026041
-0.006185
-0.006185
0.001871
0.026041
-0.022299
0.017985
-0.014242
-0.014242
-0.014242
0.009928
-0.038412
-0.127035
-0.304281
-0.344564
-0.392904
-0.392904
-0.417074
-0.417074
-0.352621
-0.336508
-0.239828
-0.199545
-0.167318
-0.135092
-0.151205
-0.110922
-0.110922
-0.078695
-0.030355
-0.030355
0.009928
0.001871
-0.022299
-0.006185
-0.014242
-0.006185
-0.014242
0.001871
0.009928
0.034098
-0.014242
-0.014242
-0.006185
0.017985
0.001871
-0.038412
-0.014242
-0.006185
-0.006185
0.009928
-0.006185
0.001871
-0.022299
-0.022299
-0.022299
-0.022299
0.009928
-0.014242
-0.014242
0.017985
-0.030355
-0.014242
-0.038412
-0.022299
-0.030355
-0.054525
-0.022299
-0.030355
-0.054525
-0.022299
-0.038412
-0.006185
-0.014242
-0.014242
0.009928
0.114664
0.267740
0.340250
0.340250
0.356363
0.348307
0.340250
0.324137
0.299967
0.227457
0.227457
0.163004
0.122721
0.050211
0.050211
0.090494
0.058268
0.009928
-0.014242
-0.006185
-0.030355
-0.006185
-0.030355
-0.014242
-0.046469
-0.054525
-0.022299
-0.014242
-0.030355
-0.038412
-0.046469
0.001871
-0.014242
-0.022299
-0.022299
-0.014242
-0.022299
-0.006185
-0.006185
-0.014242
0.001871
-0.022299
-0.014242
-0.006185
0.017985
-0.030355
0.009928
-0.014242
0.026041
0.017985
-0.014242
-0.006185
-0.038412
-0.022299
0.074381
0.179117
0.211344
0.211344
0.243570
0.187174
0.138834
0.154947
0.130778
0.034098
-0.110922
-0.304281
-0.336508
-0.376791
-0.360678
-0.368734
-0.352621
-0.376791
-0.320394
-0.231771
-0.183431
-0.159262
-0.118978
-0.110922
-0.094808
-0.078695
-0.062582
-0.054525
-0.014242
-0.006185
-0.006185
0.001871
0.001871
0.001871
-0.006185
0.009928
0.001871
0.009928
0.026041
-0.014242
0.009928
-0.006185
0.026041
0.009928
0.017985
-0.014242
0.017985
0.009928
-0.014242
0.017985
-0.030355
-0.038412
0.009928
0.009928
-0.030355
-0.014242
0.001871
-0.022299
-0.006185
-0.030355
-0.014242
0.009928
-0.014242
-0.006185
-0.038412
-0.014242
-0.022299
-0.030355
-0.022299
-0.030355
-0.038412
-0.022299
-0.038412
0.001871
0.154947
0.299967
0.372477
0.364420
0.356363
0.348307
0.340250
0.308024
0.299967
0.219401
0.179117
0.138834
0.114664
0.090494
0.082438
0.050211
0.066324
-0.006185
0.001871
0.001871
-0.022299
-0.022299
-0.046469
-0.030355
-0.030355
-0.038412
-0.014242
0.017985
0.017985
-0.022299
-0.022299
0.001871
-0.030355
-0.014242
0.001871
0.017985
-0.038412
-0.038412
-0.030355
0.009928
0.001871
0.001871
0.001871
0.009928
-0.014242
0.017985
-0.006185
-0.006185
0.026041
-0.022299
0.001871
0.017985
0.026041
0.026041
0.026041
0.001871
0.017985
-0.014242
0.009928
-0.006185
-0.022299
-0.006185
-0.006185
-0.038412
-0.175375
-0.328451
-0.392904
-0.417074
-0.392904
-0.376791
-0.384847
-0.360678
-0.344564
-0.231771
-0.223715
-0.167318
-0.151205
-0.135092
-0.094808
-0.054525
0.130778
0.187174
0.211344
0.195231
0.195231
0.171061
0.082438
0.058268
0.026041
0.042154
0.009928
0.017985
0.026041
0.017985
0.001871
-0.006185
0.009928
0.017985
-0.014242
-0.014242
-0.022299
0.001871
-0.006185
-0.014242
-0.022299
-0.022299
-0.014242
-0.046469
0.001871
-0.014242
-0.038412
-0.022299
-0.038412
-0.014242
-0.046469
-0.014242
-0.014242
-0.038412
0.001871
-0.030355
-0.046469
-0.006185
0.009928
-0.022299
-0.030355
-0.054525
-0.022299
0.017985
0.163004
0.299967
0.348307
0.372477
0.348307
0.372477
0.340250
0.332194
0.291910
0.211344
0.171061
0.122721
0.074381
0.074381
0.066324
0.034098
0.026041
-0.006185
-0.014242
-0.038412
0.017985
-0.022299
-0.030355
-0.022299
-0.014242
-0.014242
-0.046469
-0.022299
-0.014242
-0.006185
-0.030355
-0.038412
-0.014242
-0.006185
0.026041
-0.006185
-0.038412
0.009928
0.026041
0.001871
0.017985
0.017985
0.009928
0.009928
0.001871
-0.006185
0.009928
-0.006185
0.017985
0.026041
-0.006185
0.001871
-0.014242
-0.006185
-0.030355
0.001871
-0.006185
-0.014242
0.001871
-0.006185
0.017985
0.009928
-0.022299
-0.046469
-0.215658
-0.288168
-0.392904
-0.392904
-0.376791
-0.360678
-0.400961
-0.376791
-0.288168
-0.247885
-0.207601
-0.135092
-0.118978
-0.118978
-0.110922
-0.046469
-0.062582
-0.038412
0.009928
-0.022299
0.009928
-0.030355
0.009928
0.009928
0.009928
0.001871
-0.006185
0.009928
-0.038412
0.009928
-0.022299
-0.022299
-0.030355
-0.006185
-0.014242
-0.014242
-0.038412
-0.014242
0.001871
-0.038412
-0.046469
-0.046469
-0.046469
0.017985
0.090494
0.187174
0.227457
0.219401
0.187174
0.187174
0.114664
0.066324
0.058268
0.042154
0.009928
0.001871
-0.022299
0.001871
-0.006185
-0.030355
-0.006185
-0.038412
-0.006185
0.026041
0.171061
0.332194
0.388590
0.396647
0.348307
0.372477
0.364420
0.348307
0.283854
0.227457
0.154947
0.130778
0.122721
0.066324
0.082438
0.042154
0.017985
0.009928
0.001871
0.001871
0.001871
-0.006185
-0.006185
-0.022299
-0.022299
-0.030355
-0.046469
0.001871
-0.022299
-0.030355
-0.030355
-0.030355
0.001871
-0.014242
-0.030355
0.001871
-0.022299
-0.022299
-0.006185
0.001871
-0.022299
0.017985
-0.006185
-0.022299
-0.014242
0.009928
0.017985
-0.022299
0.017985
0.017985
0.034098
0.009928
0.017985
0.050211
0.017985
0.026041
0.026041
0.017985
0.009928
0.017985
0.001871
0.001871
-0.006185
-0.038412
-0.183431
-0.296224
-0.376791
-0.392904
-0.368734
-0.360678
-0.368734
-0.360678
-0.280111
-0.231771
-0.159262
-0.167318
-0.151205
-0.110922
-0.078695
-0.070638
-0.030355
-0.006185
-0.006185
0.001871
0.017985
0.009928
-0.014242
0.017985
0.017985
0.026041
0.009928
0.009928
0.026041
0.026041
-0.014242
0.009928
-0.006185
-0.022299
-0.038412
-0.030355
-0.014242
-0.038412
0.009928
-0.030355
-0.022299
-0.006185
-0.006185
-0.014242
-0.030355
-0.022299
-0.030355
-0.014242
-0.006185
-0.030355
-0.006185
-0.014242
0.001871
-0.046469
0.001871
-0.014242
-0.014242
-0.022299
-0.006185
-0.054525
-0.022299
-0.046469
-0.022299
0.001871
0.179117
0.316080
0.380533
0.469156
0.549723
0.573893
0.581949
0.549723
0.420817
0.348307
0.235514
0.179117
0.154947
0.098551
0.106608
0.066324
0.050211
0.001871
-0.030355
-0.014242
-0.054525
-0.022299
-0.046469
-0.014242
0.001871
-0.030355
-0.022299
-0.038412
-0.022299
-0.022299
-0.030355
-0.014242
-0.030355
-0.006185
-0.006185
-0.030355
-0.022299
-0.038412
0.001871
0.009928
-0.030355
-0.006185
0.026041
-0.006185
-0.022299
0.009928
0.009928
0.001871
0.017985
0.009928
0.001871
-0.006185
0.026041
0.001871
0.017985
-0.022299
-0.006185
0.009928
0.001871
0.009928
-0.006185
0.009928
0.042154
-0.062582
-0.223715
-0.344564
-0.417074
-0.392904
-0.376791
-0.352621
-0.392904
-0.360678
-0.288168
-0.215658
-0.199545
-0.143148
-0.118978
-0.110922
-0.086752
-0.118978
-0.070638
-0.014242
-0.014242
-0.006185
-0.006185
0.001871
0.009928
0.017985
0.001871
0.042154
0.001871
0.001871
-0.006185
0.017985
0.017985
-0.014242
-0.006185
-0.014242
-0.006185
-0.014242
-0.030355
-0.014242
-0.054525
-0.038412
-0.054525
-0.038412
-0.014242
-0.006185
-0.014242
-0.030355
-0.046469
-0.006185
-0.022299
-0.030355
-0.014242
0.001871
-0.038412
-0.014242
-0.046469
-0.046469
-0.030355
-0.022299
-0.030355
-0.014242
-0.014242
-0.038412
-0.038412
0.009928
0.203287
0.299967
0.356363
0.348307
0.348307
0.380533
0.340250
0.324137
0.267740
0.203287
0.154947
0.106608
0.106608
0.090494
0.090494
0.050211
0.034098
0.017985
-0.038412
0.001871
-0.006185
-0.030355
-0.038412
-0.046469
0.009928
-0.030355
-0.022299
-0.006185
-0.038412
-0.062582
-0.054525
-0.038412
-0.022299
0.138834
0.203287
0.227457
0.251627
0.203287
0.130778
0.114664
0.074381
0.074381
0.042154
0.034098
0.034098
0.009928
0.034098
-0.022299
-0.006185
0.026041
0.034098
0.009928
-0.014242
0.009928
-0.006185
0.017985
-0.014242
-0.006185
0.009928
0.042154
0.009928
-0.006185
0.001871
-0.070638
-0.247885
-0.344564
-0.392904
-0.392904
-0.400961
-0.384847
-0.400961
-0.344564
-0.296224
-0.231771
-0.183431
-0.175375
-0.135092
-0.110922
-0.070638
-0.078695
-0.046469
-0.022299
0.001871
-0.014242
0.001871
0.001871
-0.006185
-0.006185
0.009928
0.001871
0.009928
-0.014242
0.026041
0.017985
0.026041
0.001871
0.001871
0.001871
-0.030355
-0.014242
-0.006185
-0.022299
-0.030355
-0.046469
-0.006185
-0.014242
-0.006185
-0.030355
-0.014242
-0.006185
-0.006185
-0.006185
0.001871
-0.014242
-0.046469
-0.030355
-0.030355
-0.030355
-0.030355
-0.006185
-0.022299
-0.022299
-0.022299
-0.014242
-0.054525
-0.014242
-0.022299
0.082438
0.227457
0.324137
0.332194
0.356363
0.372477
0.372477
0.316080
0.316080
0.259684
0.195231
0.154947
0.106608
0.138834
0.066324
0.058268
0.026041
0.042154
-0.022299
0.017985
-0.054525
-0.022299
-0.014242
-0.006185
-0.006185
-0.046469
-0.054525
-0.014242
-0.038412
-0.030355
-0.014242
-0.030355
-0.022299
-0.022299
-0.006185
-0.006185
-0.022299
-0.022299
0.026041
-0.006185
-0.014242
-0.014242
-0.006185
-0.006185
-0.014242
0.009928
0.009928
-0.014242
0.009928
-0.014242
0.026041
-0.014242
-0.014242
-0.038412
-0.014242
-0.022299
-0.014242
0.001871
-0.006185
0.130778
0.203287
0.227457
0.227457
0.219401
0.082438
-0.102865
-0.272055
-0.296224
-0.344564
-0.352621
-0.376791
-0.344564
-0.312338
-0.288168
-0.191488
-0.151205
-0.151205
-0.110922
-0.094808
-0.086752
-0.054525
-0.062582
0.001871
-0.006185
-0.006185
0.009928
0.001871
0.001871
-0.014242
-0.014242
0.001871
0.001871
-0.006185
-0.038412
-0.014242
-0.006185
0.017985
-0.006185
-0.030355
-0.022299
-0.022299
-0.006185
0.009928
0.009928
0.009928
-0.046469
-0.038412
0.001871
-0.014242
-0.022299
-0.022299
-0.046469
-0.014242
-0.046469
-0.038412
-0.046469
-0.022299
-0.022299
-0.030355
-0.030355
-0.030355
-0.030355
-0.030355
-0.030355
-0.038412
-0.046469
-0.022299
0.001871
0.050211
0.235514
0.364420
0.332194
0.340250
0.324137
0.348307
0.324137
0.316080
0.267740
0.187174
0.179117
0.114664
0.090494
0.042154
0.050211
0.050211
0.017985
0.001871
0.017985
-0.014242
0.001871
-0.014242
-0.022299
-0.030355
-0.038412
-0.030355
-0.022299
-0.014242
-0.014242
-0.022299
-0.022299
0.026041
-0.022299
-0.006185
0.001871
-0.014242
-0.014242
-0.006185
-0.014242
0.001871
0.017985
0.001871
0.026041
0.009928
0.017985
0.009928
0.009928
0.026041
-0.014242
-0.006185
-0.030355
0.001871
-0.014242
0.017985
0.001871
-0.006185
-0.006185
-0.014242
-0.014242
0.026041
-0.006185
0.001871
0.034098
-0.086752
-0.263998
-0.352621
-0.392904
-0.433187
-0.376791
-0.409017
-0.392904
-0.352621
-0.288168
-0.215658
-0.191488
-0.167318
-0.135092
-0.135092
-0.118978
-0.110922
-0.062582
-0.030355
-0.014242
-0.006185
0.009928
-0.006185
0.058268
0.235514
0.243570
0.187174
0.219401
0.187174
0.171061
0.122721
0.090494
0.034098
0.050211
0.042154
0.009928
0.009928
0.001871
-0.006185
0.017985
-0.006185
-0.014242
-0.022299
-0.014242
0.001871
-0.022299
-0.022299
-0.022299
-0.038412
-0.022299
-0.038412
-0.062582
-0.030355
-0.014242
-0.006185
0.001871
-0.054525
-0.054525
-0.014242
-0.022299
-0.030355
-0.006185
-0.038412
-0.054525
0.082438
0.227457
0.348307
0.364420
0.324137
0.356363
0.356363
0.340250
0.316080
0.227457
0.203287
0.130778
0.114664
0.082438
0.066324
0.050211
0.082438
0.017985
-0.014242
-0.038412
-0.054525
-0.038412
-0.054525
-0.046469
-0.030355
-0.022299
-0.006185
-0.022299
-0.014242
0.001871
-0.030355
-0.022299
-0.006185
0.017985
0.026041
0.009928
-0.014242
0.009928
0.009928
0.017985
0.001871
-0.006185
0.001871
-0.022299
-0.006185
-0.022299
0.026041
-0.006185
-0.014242
0.009928
-0.022299
0.034098
-0.006185
-0.006185
0.026041
-0.022299
-0.014242
0.001871
-0.006185
-0.030355
-0.030355
-0.014242
0.009928
-0.030355
-0.135092
-0.304281
-0.392904
-0.409017
-0.360678
-0.392904
-0.384847
-0.368734
-0.336508
-0.288168
-0.223715
-0.159262
-0.151205
-0.102865
-0.102865
-0.078695
-0.038412
-0.022299
-0.046469
0.034098
0.001871
-0.030355
0.001871
0.017985
0.034098
0.009928
-0.006185
0.009928
0.001871
0.017985
-0.022299
-0.014242
-0.014242
0.001871
0.009928
0.001871
-0.030355
-0.014242
-0.038412
-0.006185
-0.054525
-0.070638
-0.022299
-0.054525
-0.030355
-0.046469
0.009928
0.154947
0.179117
0.227457
0.171061
0.146891
0.154947
0.074381
0.098551
0.001871
0.009928
-0.006185
-0.006185
-0.006185
-0.030355
0.001871
-0.006185
-0.030355
0.082438
0.299967
0.364420
0.348307
0.340250
0.372477
0.356363
0.348307
0.267740
0.219401
0.154947
0.171061
0.106608
0.074381
0.106608
0.058268
0.042154
0.001871
-0.006185
-0.038412
0.001871
-0.014242
-0.014242
-0.046469
-0.030355
-0.046469
-0.038412
-0.006185
0.001871
-0.038412
0.001871
-0.022299
-0.022299
-0.046469
-0.030355
-0.030355
-0.006185
-0.006185
-0.014242
-0.006185
-0.006185
-0.006185
0.017985
0.001871
-0.030355
0.001871
-0.006185
0.009928
0.009928
0.001871
0.001871
0.017985
-0.006185
-0.030355
0.017985
-0.014242
-0.038412
0.001871
0.009928
0.017985
-0.014242
0.009928
-0.014242
0.001871
-0.159262
-0.304281
-0.400961
-0.384847
-0.352621
-0.360678
-0.400961
-0.352621
-0.336508
-0.263998
-0.215658
-0.135092
-0.135092
-0.086752
-0.102865
-0.086752
-0.062582
-0.030355
0.017985
-0.022299
-0.014242
-0.014242
0.001871
0.009928
0.009928
-0.030355
0.001871
-0.022299
-0.006185
0.017985
0.009928
0.009928
0.017985
0.017985
-0.014242
-0.022299
-0.030355
-0.022299
-0.006185
0.001871
-0.038412
-0.038412
-0.030355
-0.038412
-0.046469
-0.038412
-0.030355
-0.022299
-0.006185
-0.038412
-0.014242
-0.022299
-0.038412
-0.014242
-0.038412
-0.054525
-0.038412
-0.030355
-0.046469
-0.054525
-0.062582
-0.030355
-0.054525
-0.014242
0.122721
0.267740
0.372477
0.332194
0.340250
0.332194
0.348307
0.291910
0.299967
0.227457
0.163004
0.114664
0.219401
0.283854
0.259684
0.267740
0.251627
0.171061
0.106608
0.026041
0.050211
0.026041
-0.022299
-0.022299
-0.014242
-0.022299
0.001871
-0.014242
-0.014242
-0.030355
0.017985
-0.022299
-0.006185
-0.046469
0.001871
-0.006185
-0.022299
-0.022299
-0.022299
-0.006185
-0.014242
0.009928
0.017985
0.009928
-0.006185
-0.014242
0.017985
-0.006185
0.001871
-0.014242
0.026041
0.009928
0.017985
0.042154
0.001871
0.034098
-0.014242
0.009928
0.001871
-0.006185
0.009928
0.017985
0.026041
-0.006185
-0.183431
-0.312338
-0.400961
-0.392904
-0.392904
-0.409017
-0.384847
-0.360678
-0.296224
-0.288168
-0.191488
-0.135092
-0.118978
-0.118978
-0.110922
-0.086752
-0.062582
-0.014242
-0.014242
-0.006185
-0.006185
0.009928
0.001871
-0.006185
0.017985
0.001871
-0.006185
0.026041
0.017985
0.009928
-0.014242
-0.030355
-0.014242
-0.006185
-0.006185
-0.014242
0.001871
-0.006185
-0.046469
0.017985
-0.022299
-0.022299
-0.038412
0.009928
-0.014242
-0.022299
-0.022299
-0.022299
0.001871
-0.022299
0.001871
-0.030355
-0.022299
0.001871
-0.022299
-0.022299
-0.038412
-0.006185
-0.054525
-0.038412
-0.022299
-0.022299
-0.038412
0.009928
0.130778
0.283854
0.340250
0.356363
0.364420
0.332194
0.340250
0.348307
0.299967
0.203287
0.171061
0.163004
0.074381
0.074381
0.034098
0.066324
0.074381
0.034098
0.009928
-0.022299
-0.038412
-0.030355
-0.022299
-0.014242
-0.038412
-0.038412
-0.054525
-0.030355
-0.030355
-0.038412
-0.038412
-0.006185
-0.062582
-0.014242
-0.022299
-0.038412
-0.046469
0.009928
0.154947
0.219401
0.203287
0.219401
0.179117
0.203287
0.138834
0.098551
0.066324
0.042154
0.017985
-0.006185
0.026041
0.042154
0.009928
0.050211
0.009928
0.017985
0.001871
-0.006185
0.017985
0.017985
-0.022299
-0.014242
0.017985
-0.014242
-0.143148
-0.304281
-0.384847
-0.400961
-0.360678
-0.392904
-0.384847
-0.368734
-0.296224
-0.207601
-0.199545
-0.151205
-0.118978
-0.110922
-0.102865
-0.094808
-0.038412
-0.078695
-0.014242
-0.006185
-0.006185
-0.022299
0.001871
-0.014242
0.001871
0.009928
-0.014242
-0.014242
0.026041
0.042154
0.017985
0.009928
-0.022299
-0.006185
-0.014242
-0.006185
-0.014242
-0.006185
-0.038412
-0.038412
-0.038412
-0.054525
-0.030355
-0.038412
-0.006185
-0.022299
0.009928
-0.046469
-0.046469
-0.038412
-0.030355
-0.014242
-0.046469
-0.006185
-0.038412
-0.030355
-0.046469
-0.014242
-0.014242
-0.062582
-0.014242
-0.022299
-0.006185
-0.006185
0.146891
0.308024
0.372477
0.356363
0.340250
0.364420
0.364420
0.316080
0.316080
0.227457
0.163004
0.138834
0.106608
0.082438
0.090494
0.050211
0.034098
0.001871
0.009928
-0.030355
-0.030355
-0.046469
-0.046469
-0.006185
-0.038412
-0.038412
-0.014242
-0.014242
-0.038412
-0.022299
-0.022299
0.009928
0.009928
-0.022299
-0.038412
-0.014242
0.009928
-0.030355
-0.022299
0.001871
0.017985
0.034098
0.017985
0.034098
0.001871
0.009928
0.009928
0.001871
0.001871
0.001871
0.034098
-0.006185
0.001871
0.009928
-0.006185
0.017985
-0.014242
-0.006185
0.001871
0.001871
0.009928
-0.014242
-0.030355
-0.046469
-0.223715
-0.320394
-0.239828
-0.175375
-0.151205
-0.159262
-0.199545
-0.151205
-0.191488
-0.143148
-0.143148
-0.070638
-0.054525
-0.102865
-0.086752
-0.070638
-0.086752
-0.038412
-0.030355
-0.014242
-0.006185
0.009928
-0.006185
0.001871
0.026041
0.001871
-0.014242
0.009928
-0.006185
0.001871
-0.014242
0.009928
-0.014242
-0.014242
-0.022299
-0.006185
-0.006185
-0.030355
-0.038412
-0.046469
0.009928
-0.022299
-0.038412
-0.030355
-0.006185
-0.006185
-0.030355
-0.014242
-0.022299
-0.022299
-0.014242
-0.022299
-0.030355
-0.046469
-0.022299
-0.038412
-0.054525
0.009928
-0.014242
0.001871
-0.054525
-0.006185
-0.046469
0.017985
0.203287
0.324137
0.372477
0.348307
0.332194
0.372477
0.348307
0.324137
0.259684
0.203287
0.179117
0.146891
0.106608
0.090494
0.066324
0.058268
0.017985
-0.006185
-0.030355
-0.022299
-0.030355
-0.006185
-0.022299
0.001871
-0.038412
-0.054525
-0.046469
-0.022299
-0.022299
-0.030355
-0.046469
-0.014242
-0.006185
-0.006185
-0.014242
0.001871
-0.006185
-0.038412
0.017985
-0.014242
-0.030355
-0.006185
-0.014242
-0.014242
0.017985
0.001871
0.050211
0.009928
-0.014242
0.001871
-0.030355
-0.014242
-0.022299
-0.006185
0.001871
0.001871
0.001871
0.009928
0.009928
0.009928
-0.014242
-0.014242
0.001871
-0.070638
-0.231771
-0.328451
-0.376791
-0.360678
-0.392904
-0.376791
-0.400961
-0.336508
-0.272055
-0.239828
-0.167318
-0.159262
-0.135092
-0.151205
-0.086752
-0.110922
-0.030355
-0.062582
-0.062582
-0.030355
-0.022299
-0.006185
-0.038412
-0.014242
0.026041
0.122721
0.187174
0.243570
0.211344
0.187174
0.171061
0.074381
0.074381
0.058268
0.017985
0.026041
0.009928
0.026041
-0.030355
0.009928
-0.030355
0.001871
-0.022299
-0.030355
-0.006185
-0.022299
-0.030355
-0.014242
-0.022299
-0.030355
-0.014242
-0.046469
0.001871
-0.014242
-0.030355
-0.022299
0.009928
-0.014242
-0.038412
-0.006185
-0.030355
-0.022299
-0.054525
0.026041
0.195231
0.299967
0.380533
0.316080
0.356363
0.340250
0.364420
0.316080
0.267740
0.235514
0.179117
0.138834
0.090494
0.114664
0.074381
0.042154
0.034098
0.034098
0.026041
0.009928
-0.030355
-0.022299
0.009928
0.009928
-0.046469
-0.046469
-0.014242
-0.054525
-0.022299
-0.030355
-0.006185
-0.038412
-0.030355
-0.022299
-0.046469
-0.030355
-0.014242
-0.014242
-0.014242
0.009928
-0.006185
0.009928
0.017985
-0.030355
0.009928
0.009928
-0.006185
0.001871
0.001871
-0.038412
-0.014242
0.001871
0.009928
0.001871
0.001871
-0.014242
0.026041
0.017985
0.017985
0.017985
0.001871
0.034098
0.017985
-0.070638
-0.239828
-0.368734
-0.376791
-0.400961
-0.376791
-0.392904
-0.352621
-0.360678
-0.288168
-0.207601
-0.207601
-0.135092
-0.135092
-0.102865
-0.094808
-0.086752
-0.062582
-0.022299
-0.014242
-0.014242
0.001871
-0.006185
0.009928
0.034098
0.034098
-0.014242
0.034098
-0.014242
0.026041
-0.006185
-0.014242
-0.014242
-0.014242
0.001871
-0.006185
0.017985
-0.022299
-0.022299
-0.014242
-0.022299
-0.054525
-0.046469
-0.038412
-0.014242
-0.030355
-0.038412
-0.038412
-0.022299
-0.046469
-0.054525
-0.070638
-0.062582
-0.070638
-0.030355
0.017985
0.138834
0.211344
0.203287
0.187174
0.179117
0.163004
0.106608
0.074381
0.122721
0.267740
0.340250
0.380533
0.372477
0.364420
0.340250
0.364420
0.316080
0.267740
0.227457
0.171061
0.122721
0.098551
0.090494
0.042154
0.042154
0.001871
0.009928
-0.014242
-0.030355
-0.046469
-0.030355
-0.038412
-0.022299
-0.046469
-0.022299
-0.030355
-0.022299
-0.030355
-0.046469
-0.038412
0.001871
0.009928
-0.022299
-0.038412
0.009928
-0.022299
0.034098
0.009928
-0.006185
0.017985
0.001871
-0.014242
-0.030355
0.009928
0.001871
-0.014242
-0.014242
-0.006185
-0.006185
-0.006185
0.009928
0.009928
-0.022299
0.017985
0.009928
-0.014242
0.001871
0.009928
0.001871
0.026041
0.050211
0.026041
-0.046469
-0.207601
-0.344564
-0.417074
-0.352621
-0.392904
-0.384847
-0.376791
-0.344564
-0.255941
-0.223715
-0.167318
-0.135092
-0.135092
-0.118978
-0.102865
-0.054525
-0.038412
-0.038412
-0.006185
-0.014242
-0.006185
-0.006185
-0.006185
0.009928
-0.014242
0.017985
-0.006185
-0.014242
0.001871
-0.014242
0.001871
0.017985
0.009928
