3.057505
3.444224
1.873179
1.140025
0.930552
0.664683
0.519664
0.350474
0.261851
0.197398
0.197398
0.100718
0.141002
0.132945
0.100718
0.036265
0.028209
0.036265
0.012095
0.052379
0.044322
0.044322
0.076548
0.076548
0.124888
0.124888
0.108775
0.141002
0.165171
0.189341
0.149058
0.205455
0.205455
0.205455
0.197398
0.205455
0.205455
0.173228
0.165171
0.237681
0.173228
0.173228
0.132945
0.165171
0.124888
0.149058
0.141002
0.141002
0.052379
0.068492
0.060435
0.036265
0.060435
-0.060414
-0.310170
-0.527700
-0.648549
-0.592153
-0.576039
-0.576039
-0.551870
-0.519643
-0.527700
-0.511586
-0.487416
-0.511586
-0.487416
-0.406850
-0.334340
-0.269887
-0.237661
-0.181264
-0.108754
-0.140981
-0.108754
-0.108754
-0.060414
-0.060414
-0.060414
-0.036245
-0.020131
0.004039
-0.044301
-0.012075
-0.004018
0.004039
-0.004018
0.028209
-0.036245
0.004039
-0.004018
0.020152
-0.004018
-0.020131
-0.012075
-0.052358
-0.004018
-0.012075
-0.004018
-0.028188
-0.004018
-0.012075
-0.028188
-0.036245
-0.020131
-0.028188
-0.036245
-0.004018
-0.028188
-0.076528
-0.044301
-0.068471
-0.012075
-0.068471
-0.044301
-0.028188
0.012095
0.181285
0.205455
0.261851
0.439097
0.559947
0.608287
0.600230
0.592173
0.551890
0.527720
0.479380
0.447154
0.422984
0.358531
0.286021
0.237681
0.181285
0.157115
0.124888
0.092662
0.052379
0.060435
0.028209
0.020152
-0.028188
-0.036245
-0.028188
-0.068471
-0.028188
-0.052358
-0.036245
-0.028188
-0.060414
-0.020131
-0.004018
-0.012075
0.012095
0.004039
0.036265
0.044322
0.004039
0.060435
0.012095
0.020152
0.052379
0.020152
0.020152
0.084605
0.060435
0.044322
0.044322
0.012095
0.044322
0.036265
0.044322
0.044322
0.068492
0.052379
0.036265
0.044322
0.028209
0.012095
0.012095
0.028209
0.004039
0.012095
0.020152
0.052379
0.004039
-0.116811
-0.286000
-0.334340
-0.406850
-0.398793
-0.390737
-0.374623
-0.382680
-0.374623
-0.302114
-0.261830
-0.213491
-0.189321
-0.149037
-0.092641
-0.084584
-0.076528
-0.004018
0.012095
-0.004018
0.004039
-0.004018
0.020152
-0.020131
-0.004018
-0.020131
0.012095
0.028209
0.028209
0.004039
-0.020131
0.020152
-0.020131
0.020152
-0.044301
-0.036245
-0.036245
0.004039
-0.036245
-0.020131
-0.044301
0.004039
-0.044301
-0.052358
-0.020131
-0.044301
-0.004018
-0.020131
-0.012075
0.004039
-0.020131
-0.036245
-0.028188
-0.020131
-0.012075
-0.012075
-0.044301
-0.044301
-0.036245
-0.036245
-0.036245
-0.020131
-0.060414
-0.036245
0.020152
0.213511
0.310191
0.334361
0.358531
0.342418
0.342418
0.334361
0.350474
0.261851
0.205455
0.157115
0.100718
0.132945
0.076548
0.044322
0.020152
-0.004018
-0.012075
0.060435
0.189341
0.197398
0.197398
0.189341
0.189341
0.157115
0.157115
0.124888
0.060435
-0.012075
0.012095
-0.004018
0.004039
0.028209
0.004039
-0.004018
0.020152
0.044322
0.012095
0.028209
0.020152
-0.004018
0.020152
-0.020131
0.012095
0.052379
0.036265
0.028209
0.028209
0.020152
0.028209
0.028209
0.020152
0.036265
0.036265
0.028209
0.036265
0.028209
0.028209
0.012095
0.012095
0.036265
0.012095
0.012095
-0.052358
-0.213491
-0.326284
-0.326284
-0.414907
-0.406850
-0.398793
-0.398793
-0.334340
-0.318227
-0.229604
-0.165151
-0.181264
-0.116811
-0.124868
-0.092641
-0.076528
-0.036245
-0.028188
-0.020131
-0.028188
-0.004018
-0.020131
-0.012075
-0.020131
0.028209
-0.004018
-0.004018
0.020152
0.012095
0.020152
-0.036245
-0.036245
0.004039
-0.004018
-0.012075
-0.004018
0.004039
-0.028188
-0.020131
-0.020131
-0.020131
-0.036245
-0.012075
-0.028188
-0.028188
0.004039
-0.044301
-0.020131
-0.012075
-0.036245
-0.044301
-0.068471
-0.012075
-0.004018
-0.020131
-0.004018
-0.012075
-0.044301
-0.052358
-0.028188
-0.028188
-0.068471
-0.020131
0.012095
0.132945
0.261851
0.318248
0.318248
0.398814
0.374644
0.366588
0.318248
0.261851
0.221568
0.181285
0.100718
0.100718
0.084605
0.052379
0.044322
0.020152
0.044322
-0.028188
-0.044301
-0.020131
-0.044301
-0.028188
-0.012075
0.012095
-0.020131
-0.044301
-0.004018
-0.020131
0.020152
-0.028188
-0.020131
-0.028188
-0.012075
0.004039
-0.012075
-0.020131
-0.028188
-0.036245
-0.012075
-0.012075
-0.004018
-0.028188
-0.012075
-0.004018
-0.012075
0.068492
0.189341
0.261851
0.253795
0.277964
0.221568
0.189341
0.189341
0.173228
0.092662
0.052379
0.084605
0.100718
0.116832
0.068492
0.060435
0.012095
-0.028188
-0.140981
-0.294057
-0.326284
-0.358510
-0.414907
-0.406850
-0.414907
-0.366567
-0.294057
-0.261830
-0.189321
-0.149037
-0.140981
-0.116811
-0.092641
-0.092641
-0.052358
-0.052358
0.004039
0.020152
-0.036245
0.004039
0.004039
0.004039
0.020152
0.004039
0.012095
-0.004018
0.004039
-0.020131
-0.004018
0.004039
-0.012075
0.004039
0.004039
-0.004018
-0.004018
0.004039
-0.020131
0.012095
-0.052358
0.012095
0.012095
-0.036245
-0.044301
-0.028188
-0.004018
-0.068471
-0.020131
-0.036245
-0.020131
-0.028188
-0.044301
-0.004018
-0.004018
-0.044301
-0.044301
-0.036245
-0.060414
-0.012075
-0.012075
-0.004018
0.004039
0.004039
0.165171
0.294078
0.302134
0.382701
0.398814
0.358531
0.358531
0.342418
0.277964
0.213511
0.181285
0.132945
0.108775
0.076548
0.076548
0.028209
0.052379
0.004039
-0.020131
-0.020131
-0.028188
-0.044301
-0.036245
-0.036245
-0.012075
-0.028188
-0.052358
-0.052358
-0.012075
-0.020131
0.012095
-0.028188
0.020152
0.004039
-0.020131
0.044322
-0.020131
-0.036245
-0.012075
0.004039
-0.004018
0.004039
0.012095
0.012095
-0.012075
0.020152
-0.004018
0.036265
0.004039
-0.012075
0.004039
0.004039
0.020152
-0.020131
-0.012075
0.020152
0.004039
-0.004018
0.028209
-0.036245
0.036265
0.012095
0.036265
-0.036245
-0.205434
-0.286000
-0.326284
-0.390737
-0.422963
-0.342397
-0.205434
-0.149037
-0.068471
-0.012075
-0.004018
-0.004018
0.028209
0.060435
0.012095
0.044322
0.004039
0.012095
-0.004018
-0.004018
0.012095
0.020152
0.012095
-0.028188
0.012095
-0.012075
-0.028188
-0.020131
-0.028188
0.012095
-0.012075
-0.012075
-0.012075
0.012095
-0.044301
-0.012075
-0.012075
-0.004018
0.004039
-0.028188
-0.012075
-0.060414
0.004039
-0.004018
-0.012075
-0.028188
-0.004018
-0.044301
-0.068471
-0.020131
-0.028188
-0.052358
-0.036245
-0.044301
-0.004018
-0.052358
-0.044301
-0.012075
-0.044301
-0.004018
-0.012075
-0.020131
-0.012075
0.028209
0.141002
0.253795
0.358531
0.374644
0.414927
0.374644
0.342418
0.350474
0.277964
0.213511
0.181285
0.116832
0.092662
0.084605
0.044322
0.028209
0.044322
-0.020131
0.012095
-0.012075
0.012095
-0.020131
-0.060414
-0.028188
-0.044301
-0.036245
-0.044301
-0.052358
0.004039
-0.028188
-0.012075
0.020152
-0.020131
0.012095
-0.028188
0.012095
0.012095
-0.020131
0.012095
-0.012075
0.004039
-0.020131
-0.004018
-0.036245
0.020152
-0.012075
0.012095
0.036265
0.020152
-0.012075
0.004039
0.012095
0.052379
0.012095
0.028209
0.012095
0.020152
0.004039
-0.004018
-0.020131
-0.012075
-0.004018
-0.012075
-0.028188
-0.189321
-0.310170
-0.326284
-0.398793
-0.390737
-0.398793
-0.414907
-0.374623
-0.302114
-0.261830
-0.213491
-0.173207
-0.116811
-0.116811
-0.124868
-0.068471
-0.068471
-0.028188
-0.012075
-0.020131
-0.028188
-0.020131
0.004039
0.004039
-0.004018
-0.028188
-0.012075
0.004039
-0.028188
-0.044301
-0.060414
-0.060414
-0.020131
-0.036245
-0.036245
0.108775
0.221568
0.261851
0.197398
0.197398
0.157115
0.165171
0.124888
0.100718
0.116832
0.084605
0.036265
0.020152
0.012095
-0.012075
0.004039
0.028209
-0.012075
-0.020131
-0.012075
-0.052358
-0.028188
-0.052358
-0.028188
-0.052358
-0.028188
-0.020131
-0.060414
-0.020131
0.116832
0.237681
0.334361
0.350474
0.374644
0.390757
0.374644
0.334361
0.269908
0.229625
0.173228
0.124888
0.076548
0.092662
0.100718
0.052379
0.012095
0.004039
-0.036245
-0.028188
-0.036245
-0.044301
-0.020131
-0.060414
-0.060414
-0.052358
-0.044301
-0.052358
-0.036245
-0.028188
-0.028188
-0.004018
-0.036245
-0.020131
-0.004018
-0.012075
-0.012075
0.020152
0.004039
0.004039
0.004039
0.012095
0.004039
-0.004018
-0.036245
0.036265
-0.012075
0.004039
0.004039
-0.004018
-0.020131
0.012095
-0.020131
0.020152
-0.012075
0.020152
-0.004018
0.012095
0.004039
0.020152
-0.012075
-0.012075
0.012095
-0.004018
-0.140981
-0.302114
-0.342397
-0.398793
-0.406850
-0.431020
-0.422963
-0.350454
-0.286000
-0.229604
-0.213491
-0.181264
-0.132924
-0.100698
-0.084584
-0.092641
-0.052358
-0.036245
-0.004018
-0.012075
-0.004018
0.028209
0.004039
0.012095
-0.020131
0.004039
-0.028188
0.020152
-0.012075
-0.012075
-0.020131
-0.004018
-0.044301
0.004039
-0.012075
-0.012075
-0.020131
-0.020131
-0.004018
-0.020131
-0.036245
-0.012075
-0.020131
-0.036245
-0.044301
-0.052358
-0.028188
-0.052358
-0.052358
-0.052358
-0.028188
-0.004018
-0.020131
-0.044301
-0.028188
-0.044301
-0.020131
-0.044301
-0.068471
-0.060414
0.044322
0.141002
0.213511
0.221568
0.350474
0.487437
0.495494
0.511607
0.479380
0.471324
0.414927
0.366588
0.294078
0.229625
0.189341
0.165171
0.084605
0.060435
0.036265
0.012095
0.012095
-0.028188
-0.044301
-0.044301
-0.020131
-0.044301
-0.052358
-0.020131
-0.044301
-0.052358
-0.028188
-0.020131
-0.020131
-0.004018
-0.028188
-0.044301
-0.004018
-0.036245
-0.028188
-0.036245
-0.028188
-0.004018
0.020152
-0.012075
-0.012075
0.004039
-0.020131
-0.012075
-0.044301
0.012095
0.012095
-0.004018
-0.028188
0.020152
0.028209
0.004039
0.004039
-0.012075
-0.020131
-0.004018
-0.004018
0.012095
-0.020131
-0.020131
-0.004018
-0.020131
-0.004018
-0.036245
-0.205434
-0.277944
-0.366567
-0.390737
-0.414907
-0.390737
-0.406850
-0.350454
-0.310170
-0.229604
-0.189321
-0.165151
-0.100698
-0.132924
-0.116811
-0.108754
-0.060414
-0.028188
0.004039
0.004039
0.004039
0.012095
0.020152
0.012095
0.028209
0.004039
-0.004018
0.020152
-0.044301
0.036265
-0.012075
0.028209
0.012095
-0.020131
-0.004018
-0.028188
-0.036245
-0.036245
-0.012075
-0.028188
-0.020131
-0.012075
-0.028188
-0.036245
0.012095
-0.020131
-0.068471
-0.012075
-0.004018
-0.044301
-0.028188
-0.044301
-0.028188
-0.020131
-0.020131
-0.020131
-0.028188
-0.068471
-0.036245
-0.044301
0.004039
-0.012075
-0.068471
-0.004018
0.157115
0.261851
0.342418
0.350474
0.326304
0.342418
0.350474
0.294078
0.253795
0.213511
0.149058
0.084605
0.060435
0.052379
0.068492
0.044322
0.012095
-0.004018
-0.044301
-0.052358
-0.052358
-0.076528
-0.028188
-0.076528
0.004039
0.100718
0.189341
0.229625
0.221568
0.181285
0.157115
0.165171
0.149058
0.108775
0.092662
0.036265
0.012095
0.020152
0.036265
0.020152
-0.020131
-0.020131
0.004039
0.004039
0.004039
-0.044301
0.012095
0.036265
0.012095
0.004039
0.028209
0.012095
-0.004018
0.012095
0.012095
-0.020131
0.012095
0.028209
0.012095
0.012095
-0.020131
0.012095
-0.004018
-0.052358
-0.165151
-0.286000
-0.310170
-0.382680
-0.398793
-0.406850
-0.406850
-0.390737
-0.286000
-0.237661
-0.165151
-0.189321
-0.124868
-0.100698
-0.116811
-0.076528
-0.060414
-0.004018
-0.036245
-0.012075
-0.052358
-0.012075
0.028209
-0.012075
-0.004018
-0.020131
-0.004018
-0.020131
-0.028188
-0.028188
-0.012075
0.012095
0.012095
-0.020131
-0.020131
-0.020131
-0.020131
-0.036245
0.012095
-0.012075
-0.020131
0.004039
-0.004018
-0.020131
-0.012075
-0.012075
-0.020131
-0.036245
-0.036245
-0.020131
-0.028188
-0.052358
-0.020131
-0.012075
-0.020131
-0.012075
-0.020131
-0.036245
-0.052358
0.004039
-0.028188
-0.028188
-0.036245
0.004039
0.149058
0.286021
0.334361
0.326304
0.398814
0.374644
0.374644
0.310191
0.277964
0.205455
0.141002
0.124888
0.092662
0.068492
0.076548
0.036265
0.004039
0.004039
-0.020131
0.036265
0.012095
-0.044301
-0.044301
-0.060414
0.004039
-0.060414
-0.036245
-0.044301
-0.028188
-0.044301
-0.028188
-0.028188
-0.036245
0.012095
-0.020131
-0.012075
-0.020131
-0.044301
-0.012075
-0.020131
0.012095
-0.004018
-0.004018
-0.036245
-0.028188
-0.012075
-0.004018
0.052379
0.165171
0.245738
0.221568
0.197398
0.205455
0.189341
0.165171
0.100718
0.052379
0.052379
0.052379
0.004039
-0.004018
-0.036245
0.004039
-0.028188
-0.197377
-0.318227
-0.350454
-0.358510
-0.366567
-0.431020
-0.406850
-0.350454
-0.310170
-0.237661
-0.205434
-0.149037
-0.157094
-0.132924
-0.076528
-0.060414
-0.052358
-0.052358
0.028209
-0.020131
-0.036245
0.012095
0.012095
-0.028188
0.020152
0.004039
-0.020131
0.004039
-0.044301
-0.004018
0.028209
-0.036245
-0.012075
-0.012075
-0.044301
-0.036245
-0.012075
-0.036245
-0.020131
-0.036245
-0.012075
-0.036245
-0.044301
-0.004018
-0.028188
0.028209
-0.004018
-0.036245
-0.012075
-0.020131
-0.036245
0.004039
-0.028188
-0.060414
0.004039
-0.012075
-0.028188
-0.060414
-0.060414
-0.052358
-0.068471
-0.044301
-0.012075
0.004039
0.149058
0.229625
0.318248
0.366588
0.358531
0.350474
0.334361
0.342418
0.269908
0.181285
0.141002
0.092662
0.084605
0.052379
0.012095
0.036265
0.020152
0.004039
-0.004018
-0.028188
-0.036245
-0.028188
-0.068471
-0.036245
-0.060414
-0.012075
-0.044301
-0.020131
-0.052358
-0.012075
-0.020131
-0.060414
-0.012075
-0.012075
-0.044301
-0.028188
-0.012075
-0.020131
-0.028188
-0.036245
-0.012075
0.004039
-0.020131
-0.036245
-0.020131
-0.036245
-0.020131
-0.028188
-0.004018
0.012095
0.012095
0.004039
0.044322
-0.004018
0.020152
-0.012075
-0.004018
-0.004018
-0.012075
-0.020131
0.036265
0.004039
-0.004018
-0.076528
-0.213491
-0.326284
-0.366567
-0.414907
-0.398793
-0.447133
-0.406850
-0.398793
-0.326284
-0.261830
-0.197377
-0.173207
-0.132924
-0.012075
0.132945
0.165171
0.197398
0.205455
0.221568
0.181285
0.173228
0.100718
0.124888
0.084605
0.028209
0.044322
0.060435
0.036265
0.020152
-0.004018
0.004039
0.012095
-0.012075
-0.012075
0.012095
-0.020131
0.012095
0.004039
-0.020131
-0.036245
-0.036245
-0.012075
-0.012075
-0.028188
-0.020131
-0.044301
-0.028188
-0.012075
-0.052358
-0.052358
-0.028188
-0.004018
-0.028188
-0.068471
-0.020131
-0.020131
-0.044301
-0.044301
-0.004018
-0.004018
-0.020131
-0.036245
-0.028188
0.004039
0.165171
0.286021
0.286021
0.342418
0.342418
0.342418
0.334361
0.326304
0.245738
0.189341
0.132945
0.076548
0.068492
0.060435
0.068492
0.044322
0.036265
-0.020131
-0.036245
-0.004018
-0.036245
-0.028188
-0.012075
-0.052358
-0.028188
-0.044301
-0.052358
-0.004018
-0.020131
-0.012075
-0.028188
-0.036245
-0.044301
-0.004018
-0.020131
-0.020131
-0.020131
0.012095
-0.004018
-0.028188
0.012095
-0.028188
-0.004018
-0.012075
-0.020131
0.020152
-0.020131
-0.012075
0.004039
-0.012075
0.004039
-0.012075
0.020152
0.004039
-0.004018
0.012095
0.036265
0.020152
-0.004018
0.004039
0.012095
0.044322
0.004039
0.004039
-0.181264
-0.294057
-0.350454
-0.374623
-0.431020
-0.390737
-0.422963
-0.374623
-0.277944
-0.253774
-0.157094
-0.132924
-0.116811
-0.060414
-0.068471
-0.108754
-0.060414
-0.060414
-0.020131
-0.012075
-0.012075
-0.028188
0.004039
-0.004018
-0.044301
-0.028188
0.012095
-0.044301
-0.044301
-0.004018
-0.020131
-0.004018
-0.028188
-0.052358
-0.004018
-0.044301
-0.028188
-0.060414
0.060435
0.181285
0.229625
0.221568
0.205455
0.149058
0.149058
0.108775
0.132945
0.092662
0.076548
0.044322
-0.004018
0.012095
-0.044301
-0.012075
-0.028188
-0.036245
-0.004018
-0.020131
-0.052358
-0.036245
-0.044301
-0.044301
-0.036245
0.036265
0.132945
0.253795
0.318248
0.326304
0.350474
0.358531
0.334361
0.302134
0.277964
0.189341
0.165171
0.100718
0.084605
0.092662
0.044322
0.044322
-0.020131
0.012095
0.012095
-0.028188
-0.020131
-0.020131
0.012095
-0.036245
-0.044301
-0.060414
-0.044301
-0.044301
-0.036245
-0.004018
-0.060414
-0.036245
-0.044301
0.012095
0.012095
-0.004018
0.020152
-0.012075
-0.020131
-0.036245
-0.028188
0.004039
-0.012075
-0.012075
-0.036245
-0.012075
-0.004018
-0.028188
0.004039
0.028209
-0.012075
0.004039
-0.012075
-0.004018
0.020152
0.012095
-0.004018
0.020152
-0.004018
-0.020131
-0.012075
0.004039
-0.004018
-0.028188
-0.165151
-0.294057
-0.334340
-0.350454
-0.390737
-0.422963
-0.431020
-0.366567
-0.302114
-0.237661
-0.189321
-0.157094
-0.132924
-0.116811
-0.068471
-0.124868
-0.052358
-0.044301
-0.028188
-0.020131
0.004039
-0.004018
-0.020131
-0.004018
-0.020131
0.004039
-0.012075
0.012095
-0.004018
-0.004018
0.004039
-0.028188
-0.012075
0.028209
0.012095
-0.020131
-0.012075
0.004039
-0.012075
-0.020131
-0.044301
-0.028188
-0.020131
-0.036245
-0.052358
-0.012075
-0.060414
-0.012075
-0.028188
-0.052358
-0.036245
-0.076528
-0.036245
-0.052358
-0.068471
-0.036245
-0.052358
-0.060414
-0.020131
-0.068471
-0.028188
-0.044301
-0.052358
-0.028188
0.108775
0.277964
0.374644
0.535777
0.608287
0.624400
0.592173
0.519664
0.447154
0.350474
0.221568
0.181285
0.173228
0.092662
0.076548
0.036265
0.036265
-0.012075
0.028209
-0.044301
-0.036245
-0.028188
-0.020131
-0.036245
-0.028188
0.012095
-0.036245
-0.028188
-0.044301
-0.044301
-0.020131
-0.036245
-0.020131
0.028209
-0.012075
-0.052358
-0.036245
-0.020131
0.020152
0.020152
0.020152
-0.012075
-0.004018
-0.012075
0.004039
-0.012075
0.012095
-0.028188
0.020152
-0.012075
-0.004018
-0.004018
-0.012075
-0.036245
0.004039
-0.036245
-0.012075
0.020152
-0.012075
0.012095
-0.020131
0.020152
-0.004018
-0.044301
-0.173207
-0.310170
-0.358510
-0.398793
-0.414907
-0.439077
-0.374623
-0.350454
-0.302114
-0.253774
-0.157094
-0.149037
-0.116811
-0.108754
-0.100698
-0.084584
-0.060414
-0.036245
-0.020131
-0.012075
-0.012075
0.020152
-0.004018
-0.028188
-0.020131
0.004039
0.012095
0.004039
0.004039
-0.020131
-0.012075
0.028209
-0.012075
-0.036245
0.028209
-0.020131
-0.012075
-0.052358
-0.020131
-0.036245
0.028209
0.012095
0.020152
-0.020131
-0.028188
-0.004018
-0.004018
-0.028188
-0.028188
-0.020131
-0.044301
-0.028188
-0.028188
-0.036245
-0.028188
-0.060414
-0.028188
-0.012075
-0.044301
-0.036245
-0.052358
-0.060414
-0.036245
0.004039
0.173228
0.253795
0.350474
0.318248
0.342418
0.366588
0.294078
0.286021
0.261851
0.197398
0.157115
0.116832
0.084605
0.052379
0.060435
-0.004018
-0.004018
-0.036245
-0.052358
-0.036245
-0.020131
-0.076528
-0.052358
-0.068471
-0.060414
0.044322
0.149058
0.189341
0.205455
0.181285
0.173228
0.141002
0.116832
0.124888
0.092662
0.052379
0.044322
0.004039
0.012095
0.012095
0.004039
-0.028188
-0.004018
0.004039
0.020152
-0.004018
0.028209
-0.004018
-0.004018
0.004039
-0.020131
-0.036245
-0.020131
-0.004018
-0.012075
-0.012075
-0.012075
0.004039
-0.004018
-0.012075
0.020152
-0.012075
0.020152
-0.028188
-0.205434
-0.310170
-0.382680
-0.406850
-0.366567
-0.422963
-0.406850
-0.342397
-0.286000
-0.213491
-0.197377
-0.124868
-0.076528
-0.076528
-0.084584
-0.036245
-0.020131
-0.020131
-0.052358
-0.012075
-0.028188
-0.028188
0.012095
-0.028188
0.028209
-0.020131
-0.004018
0.028209
-0.028188
-0.012075
-0.012075
-0.028188
-0.004018
-0.020131
-0.012075
-0.060414
-0.036245
-0.044301
-0.012075
-0.020131
-0.036245
-0.020131
-0.020131
-0.020131
-0.020131
-0.036245
-0.044301
-0.004018
-0.028188
-0.028188
-0.052358
-0.004018
-0.036245
-0.036245
-0.004018
-0.020131
-0.004018
-0.028188
-0.044301
-0.036245
-0.004018
-0.060414
-0.028188
0.004039
0.181285
0.310191
0.310191
0.358531
0.358531
0.366588
0.334361
0.318248
0.261851
0.197398
0.132945
0.076548
0.060435
0.044322
0.084605
0.052379
0.012095
0.020152
-0.052358
-0.052358
-0.052358
-0.052358
-0.012075
-0.012075
-0.068471
-0.052358
-0.036245
-0.028188
-0.052358
-0.060414
-0.044301
-0.044301
-0.036245
-0.012075
-0.036245
0.004039
-0.036245
-0.020131
-0.020131
-0.004018
-0.052358
-0.020131
-0.020131
-0.004018
-0.028188
0.012095
-0.012075
0.004039
-0.028188
-0.012075
-0.012075
-0.012075
-0.052358
-0.044301
0.012095
0.116832
0.197398
0.229625
0.213511
0.237681
0.237681
0.157115
0.173228
0.084605
-0.068471
-0.157094
-0.253774
-0.302114
-0.350454
-0.382680
-0.398793
-0.350454
-0.294057
-0.205434
-0.132924
-0.181264
-0.132924
-0.124868
-0.100698
-0.060414
-0.036245
-0.020131
-0.004018
-0.012075
0.004039
-0.028188
0.012095
-0.028188
-0.004018
-0.012075
0.012095
-0.020131
-0.004018
-0.020131
-0.012075
-0.012075
-0.036245
-0.028188
-0.044301
-0.020131
-0.036245
-0.044301
-0.028188
-0.028188
-0.068471
0.004039
-0.052358
-0.028188
-0.028188
-0.060414
-0.060414
-0.060414
-0.020131
-0.036245
-0.004018
-0.044301
-0.036245
-0.004018
-0.036245
-0.004018
-0.052358
0.004039
-0.028188
-0.076528
-0.044301
-0.004018
-0.068471
0.044322
0.149058
0.277964
0.310191
0.342418
0.366588
0.374644
0.350474
0.269908
0.269908
0.237681
0.108775
0.092662
0.060435
0.060435
0.036265
0.020152
0.028209
0.028209
-0.036245
-0.020131
-0.020131
-0.044301
-0.052358
-0.036245
-0.012075
-0.036245
-0.044301
-0.076528
-0.028188
-0.052358
-0.020131
-0.028188
-0.028188
-0.036245
-0.012075
0.020152
-0.004018
0.012095
-0.020131
0.020152
-0.020131
-0.012075
0.020152
0.012095
0.020152
0.036265
0.004039
0.004039
0.012095
0.004039
0.036265
0.028209
0.036265
0.012095
0.012095
-0.020131
-0.012075
-0.036245
-0.020131
-0.004018
-0.028188
-0.004018
-0.004018
-0.068471
-0.213491
-0.310170
-0.318227
-0.414907
-0.414907
-0.422963
-0.439077
-0.374623
-0.334340
-0.261830
-0.221547
-0.173207
-0.132924
-0.116811
-0.100698
-0.116811
0.020152
0.149058
0.229625
0.189341
0.173228
0.205455
0.205455
0.165171
0.092662
0.076548
0.036265
0.028209
0.012095
-0.028188
-0.036245
-0.036245
-0.028188
0.004039
-0.028188
-0.036245
-0.028188
-0.012075
-0.004018
-0.044301
-0.036245
-0.028188
-0.036245
-0.028188
-0.036245
-0.020131
-0.028188
-0.028188
-0.020131
-0.044301
-0.036245
-0.028188
-0.044301
-0.020131
-0.028188
0.004039
-0.004018
-0.044301
-0.052358
-0.068471
-0.036245
-0.028188
-0.020131
0.020152
0.157115
0.253795
0.318248
0.342418
0.334361
0.366588
0.358531
0.302134
0.229625
0.173228
0.157115
0.116832
0.100718
0.044322
0.036265
0.028209
0.004039
-0.012075
-0.020131
-0.036245
-0.028188
-0.060414
-0.036245
-0.052358
0.012095
-0.004018
-0.044301
-0.020131
-0.020131
-0.036245
-0.028188
-0.052358
-0.044301
-0.036245
-0.028188
-0.004018
-0.020131
-0.012075
0.004039
-0.020131
-0.028188
0.004039
-0.044301
0.020152
-0.004018
-0.004018
-0.004018
-0.012075
0.004039
-0.020131
0.012095
0.004039
-0.020131
0.028209
0.028209
-0.020131
0.036265
0.012095
0.028209
0.036265
0.020152
-0.012075
0.004039
-0.084584
-0.197377
-0.310170
-0.358510
-0.374623
-0.422963
-0.406850
-0.422963
-0.358510
-0.286000
-0.253774
-0.173207
-0.140981
-0.124868
-0.108754
-0.100698
-0.052358
-0.052358
-0.020131
-0.004018
-0.012075
-0.012075
-0.012075
-0.012075
-0.012075
0.004039
-0.028188
0.004039
-0.004018
-0.020131
-0.036245
-0.020131
-0.020131
-0.020131
-0.028188
-0.012075
-0.036245
-0.044301
-0.044301
-0.020131
-0.068471
-0.060414
-0.060414
-0.068471
-0.060414
0.028209
0.149058
0.205455
0.189341
0.189341
0.197398
0.157115
0.141002
0.132945
0.100718
0.060435
0.020152
-0.020131
-0.012075
-0.020131
-0.036245
-0.012075
-0.020131
-0.020131
0.036265
0.173228
0.245738
0.294078
0.350474
0.366588
0.342418
0.366588
0.326304
0.221568
0.181285
0.100718
0.100718
0.108775
0.060435
0.052379
0.060435
-0.020131
0.020152
-0.052358
-0.012075
-0.028188
-0.028188
-0.052358
-0.012075
-0.052358
-0.044301
-0.036245
-0.036245
-0.012075
-0.028188
0.004039
-0.052358
-0.044301
-0.044301
-0.036245
-0.028188
-0.004018
0.012095
0.012095
0.020152
-0.020131
-0.004018
-0.012075
-0.020131
0.036265
-0.012075
0.028209
-0.004018
-0.020131
0.012095
-0.004018
0.036265
0.004039
-0.012075
0.004039
0.012095
-0.004018
0.004039
-0.012075
0.012095
-0.004018
-0.004018
0.020152
-0.028188
-0.173207
-0.318227
-0.358510
-0.414907
-0.398793
-0.390737
-0.414907
-0.334340
-0.277944
-0.253774
-0.189321
-0.165151
-0.100698
-0.116811
-0.108754
-0.068471
-0.052358
-0.028188
-0.004018
-0.012075
-0.004018
0.012095
-0.004018
0.012095
-0.036245
0.028209
0.012095
-0.020131
-0.020131
-0.028188
-0.012075
-0.044301
-0.028188
-0.020131
-0.020131
-0.012075
-0.012075
-0.060414
-0.052358
-0.052358
-0.060414
-0.036245
-0.036245
-0.036245
-0.044301
-0.052358
-0.068471
-0.036245
-0.004018
-0.028188
-0.028188
-0.028188
-0.020131
-0.060414
-0.044301
-0.036245
-0.052358
-0.036245
-0.012075
-0.028188
-0.044301
-0.044301
-0.044301
-0.004018
0.181285
0.237681
0.277964
0.422984
0.551890
0.616343
0.600230
0.543834
0.455211
0.382701
0.302134
0.197398
0.205455
0.149058
0.068492
0.100718
0.020152
0.020152
-0.028188
-0.004018
-0.036245
-0.060414
0.004039
-0.044301
-0.028188
-0.004018
-0.028188
-0.020131
-0.036245
-0.036245
-0.036245
-0.004018
-0.036245
-0.004018
-0.020131
-0.004018
-0.004018
-0.012075
-0.004018
-0.028188
0.004039
0.004039
-0.004018
0.028209
-0.028188
-0.012075
0.004039
-0.012075
-0.012075
-0.028188
0.012095
-0.036245
-0.004018
-0.012075
-0.004018
-0.020131
-0.012075
-0.004018
-0.020131
-0.004018
-0.012075
-0.012075
-0.020131
-0.084584
-0.245717
-0.318227
-0.398793
-0.398793
-0.382680
-0.406850
-0.342397
-0.326284
-0.277944
-0.189321
-0.181264
-0.149037
-0.092641
-0.116811
-0.124868
-0.084584
-0.044301
-0.020131
-0.044301
-0.012075
-0.028188
0.004039
0.012095
-0.004018
0.020152
-0.020131
-0.028188
-0.004018
-0.020131
-0.012075
-0.020131
-0.036245
-0.012075
-0.060414
-0.052358
-0.036245
-0.036245
0.020152
-0.004018
-0.020131
-0.020131
-0.028188
-0.020131
-0.012075
-0.036245
-0.020131
-0.028188
-0.036245
-0.044301
-0.044301
-0.044301
-0.020131
-0.044301
-0.028188
-0.020131
-0.012075
-0.028188
-0.044301
-0.052358
-0.044301
-0.036245
-0.020131
-0.044301
0.020152
0.221568
0.277964
0.326304
0.374644
0.350474
0.366588
0.358531
0.318248
0.286021
0.189341
0.149058
0.108775
0.068492
0.076548
0.060435
0.028209
-0.012075
-0.020131
-0.028188
-0.044301
-0.020131
-0.044301
-0.060414
-0.052358
-0.028188
-0.036245
-0.076528
-0.052358
-0.036245
-0.060414
-0.044301
-0.020131
-0.012075
0.149058
0.197398
0.221568
0.245738
0.245738
0.189341
0.181285
0.165171
0.132945
0.052379
0.060435
0.044322
0.012095
-0.004018
-0.036245
0.012095
0.028209
-0.004018
-0.004018
0.004039
0.020152
0.012095
0.012095
-0.036245
-0.020131
-0.044301
-0.036245
-0.012075
-0.012075
-0.004018
-0.060414
-0.221547
-0.342397
-0.358510
-0.406850
-0.374623
-0.431020
-0.398793
-0.406850
-0.277944
-0.205434
-0.189321
-0.149037
-0.149037
-0.116811
-0.084584
-0.108754
-0.020131
-0.012075
-0.028188
-0.020131
-0.028188
-0.004018
-0.036245
-0.012075
0.004039
-0.004018
-0.020131
-0.004018
0.020152
-0.020131
-0.020131
-0.036245
0.012095
-0.020131
-0.052358
-0.012075
-0.028188
-0.028188
-0.052358
-0.036245
-0.036245
0.012095
0.004039
-0.012075
-0.004018
-0.028188
-0.060414
-0.028188
-0.036245
-0.036245
0.020152
-0.044301
-0.028188
-0.052358
-0.028188
-0.052358
-0.052358
-0.036245
-0.044301
-0.036245
-0.012075
0.028209
-0.028188
0.036265
0.181285
0.310191
0.310191
0.342418
0.374644
0.382701
0.350474
0.286021
0.269908
0.213511
0.141002
0.116832
0.124888
0.076548
0.084605
0.036265
0.060435
-0.004018
-0.036245
-0.052358
-0.044301
-0.036245
-0.020131
-0.052358
-0.028188
-0.052358
-0.020131
-0.052358
0.004039
-0.028188
-0.012075
-0.044301
0.012095
-0.044301
-0.028188
-0.052358
-0.012075
-0.004018
-0.036245
-0.020131
-0.028188
-0.020131
-0.004018
-0.012075
-0.036245
-0.012075
-0.004018
-0.020131
-0.012075
-0.028188
-0.028188
-0.044301
-0.020131
-0.012075
-0.044301
-0.012075
-0.036245
-0.012075
0.108775
0.213511
0.269908
0.221568
0.237681
0.124888
-0.068471
-0.173207
-0.237661
-0.277944
-0.310170
-0.366567
-0.382680
-0.326284
-0.269887
-0.237661
-0.181264
-0.149037
-0.100698
-0.076528
-0.076528
-0.068471
-0.044301
-0.020131
-0.044301
-0.012075
0.004039
-0.012075
-0.004018
-0.004018
0.012095
-0.028188
0.004039
-0.004018
-0.020131
-0.020131
-0.036245
-0.020131
-0.012075
-0.020131
-0.020131
0.004039
0.012095
-0.020131
-0.036245
-0.044301
-0.004018
-0.036245
-0.052358
-0.020131
-0.052358
0.004039
-0.044301
-0.028188
-0.020131
-0.044301
-0.036245
-0.020131
-0.044301
-0.020131
-0.052358
-0.036245
-0.068471
-0.036245
-0.012075
-0.020131
-0.044301
-0.036245
-0.036245
0.012095
0.173228
0.245738
0.310191
0.358531
0.374644
0.374644
0.350474
0.294078
0.245738
0.181285
0.124888
0.124888
0.084605
0.068492
0.052379
0.020152
0.036265
0.044322
-0.020131
-0.028188
-0.052358
-0.004018
-0.052358
-0.052358
-0.052358
-0.036245
-0.052358
-0.052358
-0.020131
-0.036245
-0.004018
-0.036245
-0.028188
-0.028188
-0.012075
-0.028188
-0.028188
-0.044301
-0.004018
-0.028188
-0.036245
-0.020131
-0.004018
-0.012075
-0.004018
0.012095
0.004039
-0.020131
-0.012075
0.004039
-0.004018
0.020152
-0.028188
0.004039
0.004039
-0.020131
-0.020131
-0.028188
0.012095
0.012095
0.012095
0.020152
-0.012075
-0.044301
-0.205434
-0.294057
-0.366567
-0.398793
-0.414907
-0.382680
-0.382680
-0.326284
-0.294057
-0.189321
-0.197377
-0.140981
-0.149037
-0.124868
-0.100698
-0.124868
-0.068471
-0.060414
-0.052358
-0.036245
-0.036245
-0.068471
0.076548
0.181285
0.205455
0.229625
0.205455
0.181285
0.141002
0.173228
0.124888
0.132945
0.092662
0.084605
0.036265
-0.012075
-0.012075
-0.004018
-0.004018
-0.028188
-0.044301
-0.020131
-0.052358
-0.060414
-0.044301
-0.044301
-0.044301
-0.044301
-0.044301
-0.044301
-0.044301
-0.036245
-0.036245
-0.036245
-0.044301
-0.044301
-0.028188
-0.052358
-0.036245
-0.068471
-0.068471
-0.052358
-0.020131
0.036265
0.165171
0.286021
0.334361
0.350474
0.374644
