2.610447
3.005222
1.683933
1.111912
1.063572
0.773533
0.668796
0.547947
0.427097
0.330417
0.257908
0.209568
0.185398
0.153171
0.112888
0.153171
0.080662
0.080662
0.096775
0.040378
0.008152
-0.007961
0.000095
-0.007961
-0.032131
0.008152
-0.032131
0.032322
0.064548
0.016208
0.008152
0.008152
0.072605
0.000095
0.024265
0.048435
0.056492
0.048435
0.088718
0.040378
0.080662
0.072605
0.112888
0.056492
0.064548
0.104832
0.080662
0.088718
0.064548
0.056492
0.040378
0.056492
0.048435
0.032322
0.040378
0.024265
0.016208
-0.064358
-0.354397
-0.547756
-0.668606
-0.660549
-0.612209
-0.612209
-0.604153
-0.507473
-0.370510
-0.298001
-0.306057
-0.273831
-0.273831
-0.265774
-0.225491
-0.177151
-0.177151
-0.193264
-0.185208
-0.185208
-0.193264
-0.144924
-0.096584
-0.072415
-0.080471
-0.056301
-0.040188
0.000095
-0.007961
0.024265
-0.007961
0.032322
0.000095
-0.016018
0.024265
-0.032131
0.000095
-0.024075
0.008152
0.008152
-0.007961
-0.007961
-0.032131
0.008152
-0.024075
0.024265
0.000095
-0.040188
-0.016018
-0.048245
-0.007961
-0.016018
-0.007961
-0.007961
0.000095
-0.032131
-0.024075
-0.048245
-0.024075
0.000095
-0.040188
-0.024075
-0.040188
-0.024075
-0.064358
-0.032131
0.072605
0.233738
0.338474
0.427097
0.435154
0.410984
0.362644
0.386814
0.394871
0.402927
0.386814
0.330417
0.274021
0.185398
0.161228
0.112888
0.072605
0.072605
0.072605
0.064548
0.024265
0.016208
-0.007961
0.000095
-0.064358
-0.032131
-0.040188
-0.048245
-0.007961
-0.016018
-0.016018
-0.024075
0.000095
-0.007961
-0.024075
0.040378
-0.007961
0.008152
0.000095
0.016208
0.000095
0.016208
0.024265
0.016208
0.016208
0.016208
0.024265
0.016208
0.008152
0.024265
0.032322
0.024265
0.040378
0.024265
0.032322
0.040378
0.000095
0.040378
0.008152
0.032322
0.000095
-0.007961
-0.016018
-0.007961
0.016208
-0.007961
-0.056301
-0.217434
-0.322170
-0.378567
-0.394680
-0.394680
-0.402737
-0.426907
-0.402737
-0.370510
-0.281887
-0.225491
-0.209377
-0.169094
-0.120754
-0.096584
-0.088528
-0.088528
-0.056301
-0.040188
-0.024075
-0.024075
-0.016018
-0.032131
-0.016018
-0.040188
-0.048245
0.008152
-0.016018
-0.007961
-0.024075
-0.007961
0.161228
0.249851
0.225681
0.217624
0.257908
0.185398
0.153171
0.161228
0.120945
0.129001
0.088718
0.064548
0.032322
0.024265
-0.024075
0.032322
0.008152
-0.040188
-0.024075
-0.048245
-0.024075
-0.056301
-0.040188
-0.048245
-0.024075
-0.016018
-0.064358
-0.032131
-0.056301
-0.016018
-0.007961
0.000095
0.000095
0.145115
0.274021
0.338474
0.362644
0.378757
0.386814
0.346531
0.330417
0.306248
0.249851
0.209568
0.185398
0.112888
0.080662
0.064548
0.080662
0.032322
0.056492
0.000095
0.000095
-0.024075
-0.007961
-0.016018
-0.056301
-0.024075
0.000095
-0.032131
-0.024075
-0.040188
-0.007961
0.032322
-0.024075
0.000095
-0.007961
0.008152
0.032322
-0.007961
0.032322
0.032322
0.008152
0.040378
0.008152
0.016208
0.024265
0.056492
0.032322
0.040378
0.024265
0.024265
0.040378
0.024265
0.000095
0.016208
0.016208
0.016208
0.008152
0.000095
0.000095
-0.024075
-0.007961
0.016208
0.032322
0.016208
-0.032131
-0.161038
-0.273831
-0.386624
-0.378567
-0.418850
-0.394680
-0.418850
-0.410793
-0.330227
-0.298001
-0.217434
-0.217434
-0.152981
-0.104641
-0.112698
-0.104641
-0.048245
-0.056301
-0.032131
-0.040188
-0.007961
0.016208
-0.007961
0.016208
0.040378
-0.007961
-0.016018
0.000095
0.016208
-0.016018
0.000095
0.008152
0.008152
-0.007961
-0.032131
-0.024075
-0.032131
-0.016018
0.008152
-0.016018
-0.040188
-0.024075
-0.016018
-0.007961
-0.032131
-0.032131
-0.040188
-0.072415
-0.032131
-0.040188
-0.064358
-0.072415
-0.056301
-0.007961
0.096775
0.201511
0.193455
0.185398
0.177341
0.129001
0.129001
0.112888
0.104832
0.072605
0.201511
0.322361
0.394871
0.410984
0.362644
0.346531
0.362644
0.346531
0.322361
0.225681
0.177341
0.153171
0.112888
0.072605
0.048435
0.048435
0.008152
-0.007961
-0.032131
0.000095
-0.032131
-0.024075
-0.072415
-0.024075
0.024265
-0.007961
-0.016018
-0.032131
-0.016018
-0.016018
-0.024075
-0.056301
-0.007961
0.008152
-0.016018
0.024265
-0.024075
0.000095
0.000095
0.016208
0.024265
0.016208
0.008152
0.008152
-0.024075
-0.024075
0.008152
0.000095
-0.007961
0.040378
0.016208
0.008152
0.016208
0.040378
0.040378
0.008152
-0.007961
0.032322
0.000095
0.016208
-0.007961
0.016208
-0.016018
-0.016018
-0.096584
-0.257717
-0.346340
-0.402737
-0.386624
-0.386624
-0.402737
-0.378567
-0.338284
-0.289944
-0.217434
-0.193264
-0.152981
-0.136868
-0.112698
-0.088528
-0.080471
-0.056301
-0.007961
-0.007961
0.008152
-0.007961
-0.007961
0.016208
0.024265
-0.016018
0.000095
0.024265
-0.024075
0.032322
0.008152
0.016208
-0.016018
0.024265
-0.007961
0.008152
0.016208
-0.024075
-0.016018
-0.032131
-0.016018
-0.016018
-0.032131
0.008152
-0.024075
0.008152
-0.032131
0.008152
-0.024075
-0.016018
-0.040188
-0.032131
0.008152
-0.040188
-0.048245
-0.024075
-0.040188
-0.016018
-0.048245
-0.048245
-0.056301
-0.072415
-0.016018
-0.040188
0.048435
0.225681
0.265964
0.298191
0.314304
0.338474
0.378757
0.322361
0.290134
0.217624
0.161228
0.137058
0.072605
0.072605
0.040378
0.032322
0.024265
-0.024075
0.008152
0.024265
0.161228
0.233738
0.169285
0.185398
0.153171
0.153171
0.129001
0.072605
0.088718
0.056492
0.104832
0.048435
0.056492
0.040378
0.024265
-0.007961
0.000095
0.000095
-0.007961
0.032322
-0.007961
0.040378
0.008152
-0.007961
0.000095
0.008152
0.000095
0.024265
-0.007961
0.000095
-0.007961
-0.007961
0.032322
-0.007961
0.000095
0.000095
0.008152
0.000095
-0.024075
-0.007961
-0.040188
-0.032131
0.024265
0.024265
-0.080471
-0.257717
-0.338284
-0.378567
-0.394680
-0.402737
-0.418850
-0.370510
-0.346340
-0.257717
-0.217434
-0.144924
-0.144924
-0.112698
-0.096584
-0.120754
-0.104641
-0.024075
-0.016018
0.008152
-0.016018
-0.007961
-0.048245
0.000095
-0.007961
0.000095
0.016208
0.008152
-0.016018
-0.007961
-0.032131
0.016208
-0.048245
-0.016018
-0.007961
-0.024075
0.000095
-0.032131
-0.032131
-0.007961
-0.024075
0.008152
0.000095
-0.016018
0.000095
-0.024075
-0.040188
-0.016018
-0.032131
-0.064358
-0.032131
-0.016018
-0.040188
-0.007961
-0.040188
-0.040188
-0.040188
-0.024075
-0.007961
-0.024075
-0.024075
-0.016018
-0.032131
-0.056301
0.024265
0.257908
0.314304
0.378757
0.386814
0.354587
0.378757
0.370701
0.338474
0.241794
0.217624
0.137058
0.112888
0.096775
0.096775
0.080662
0.032322
-0.024075
0.008152
-0.016018
0.016208
-0.032131
-0.040188
-0.048245
-0.040188
-0.024075
-0.048245
-0.048245
-0.032131
-0.024075
-0.024075
-0.056301
-0.032131
-0.048245
-0.024075
-0.016018
-0.048245
0.000095
-0.040188
-0.016018
-0.040188
-0.040188
-0.007961
-0.024075
0.032322
0.193455
0.233738
0.257908
0.265964
0.217624
0.217624
0.177341
0.185398
0.112888
0.104832
0.096775
0.112888
0.104832
0.024265
0.024265
0.008152
-0.007961
0.008152
-0.016018
-0.064358
-0.265774
-0.370510
-0.362454
-0.386624
-0.386624
-0.451077
-0.402737
-0.362454
-0.273831
-0.225491
-0.185208
-0.152981
-0.128811
-0.128811
-0.112698
-0.024075
-0.056301
-0.016018
-0.016018
0.000095
0.024265
0.016208
0.032322
0.016208
-0.007961
-0.007961
-0.032131
0.000095
0.032322
0.000095
-0.040188
-0.016018
-0.016018
0.008152
0.000095
-0.032131
-0.007961
-0.016018
-0.048245
0.000095
0.008152
-0.024075
-0.024075
-0.007961
-0.024075
-0.032131
-0.040188
-0.016018
-0.040188
-0.016018
-0.064358
-0.016018
-0.048245
-0.032131
-0.040188
-0.007961
-0.032131
-0.032131
-0.016018
-0.007961
-0.016018
-0.007961
-0.032131
0.048435
0.201511
0.298191
0.306248
0.354587
0.346531
0.362644
0.362644
0.265964
0.225681
0.201511
0.177341
0.129001
0.064548
0.040378
0.048435
0.056492
0.016208
0.000095
-0.024075
-0.007961
-0.048245
-0.016018
-0.032131
-0.056301
-0.032131
-0.016018
-0.024075
-0.040188
-0.032131
-0.016018
-0.032131
-0.032131
-0.007961
-0.016018
0.008152
-0.016018
0.008152
0.000095
0.000095
0.008152
0.000095
0.000095
0.016208
0.000095
-0.007961
0.008152
0.000095
0.016208
-0.016018
-0.007961
-0.024075
-0.007961
0.000095
-0.007961
-0.048245
-0.024075
-0.024075
0.000095
-0.024075
-0.016018
-0.007961
0.000095
-0.024075
-0.120754
-0.281887
-0.338284
-0.354397
-0.394680
-0.418850
-0.443020
-0.378567
-0.354397
-0.096584
-0.007961
0.056492
0.104832
0.104832
0.161228
0.080662
0.096775
0.096775
0.088718
0.104832
0.112888
0.056492
0.048435
0.056492
0.024265
0.016208
0.016208
-0.016018
0.016208
0.016208
-0.016018
0.016208
0.016208
0.000095
0.016208
-0.048245
-0.016018
0.008152
-0.040188
-0.007961
-0.048245
-0.032131
-0.032131
-0.048245
-0.024075
-0.024075
-0.024075
-0.032131
-0.024075
-0.007961
-0.024075
-0.016018
0.000095
-0.040188
-0.024075
-0.048245
-0.032131
-0.024075
-0.024075
-0.048245
-0.040188
0.000095
-0.024075
-0.048245
0.064548
0.217624
0.290134
0.354587
0.338474
0.346531
0.362644
0.330417
0.338474
0.265964
0.161228
0.153171
0.120945
0.064548
0.056492
0.040378
0.056492
0.016208
0.000095
-0.007961
-0.024075
-0.056301
-0.016018
-0.056301
-0.024075
-0.040188
-0.056301
-0.048245
-0.040188
-0.040188
-0.016018
-0.040188
0.000095
-0.040188
-0.024075
-0.007961
0.008152
0.016208
0.016208
0.048435
-0.007961
0.008152
0.016208
0.008152
0.016208
0.000095
0.016208
0.040378
-0.007961
-0.016018
0.048435
-0.024075
0.008152
-0.007961
0.040378
0.032322
0.000095
0.008152
0.000095
0.032322
0.048435
0.008152
0.024265
-0.007961
-0.104641
-0.257717
-0.338284
-0.378567
-0.410793
-0.418850
-0.394680
-0.362454
-0.346340
-0.265774
-0.217434
-0.169094
-0.136868
-0.104641
-0.088528
-0.056301
-0.064358
-0.056301
-0.032131
-0.024075
-0.007961
0.008152
0.000095
0.016208
0.000095
-0.024075
0.000095
-0.007961
0.000095
0.016208
-0.040188
0.016208
0.112888
0.217624
0.257908
0.185398
0.201511
0.177341
0.153171
0.120945
0.088718
0.032322
0.032322
0.008152
0.016208
-0.007961
-0.040188
0.000095
-0.048245
-0.040188
-0.007961
-0.032131
-0.032131
-0.024075
-0.040188
-0.056301
-0.032131
-0.040188
-0.016018
-0.024075
-0.032131
-0.016018
-0.016018
-0.032131
0.056492
0.233738
0.290134
0.298191
0.378757
0.362644
0.354587
0.322361
0.265964
0.241794
0.169285
0.104832
0.088718
0.096775
0.072605
0.096775
0.032322
-0.007961
0.016208
-0.024075
-0.040188
-0.024075
-0.064358
-0.024075
-0.040188
-0.032131
-0.048245
-0.032131
-0.024075
-0.056301
-0.032131
-0.032131
-0.040188
-0.016018
-0.016018
-0.024075
-0.032131
-0.007961
-0.032131
0.000095
0.000095
0.016208
-0.024075
0.016208
0.008152
-0.024075
0.000095
0.008152
0.024265
0.032322
0.024265
0.032322
-0.007961
-0.040188
0.016208
0.000095
-0.007961
0.016208
0.008152
0.024265
0.016208
0.016208
-0.007961
-0.024075
-0.096584
-0.241604
-0.322170
-0.362454
-0.378567
-0.394680
-0.362454
-0.386624
-0.330227
-0.273831
-0.233547
-0.177151
-0.136868
-0.128811
-0.120754
-0.072415
-0.056301
-0.040188
-0.007961
-0.007961
-0.024075
0.000095
-0.016018
0.024265
0.016208
0.024265
0.008152
0.040378
-0.024075
0.008152
-0.016018
0.008152
-0.007961
-0.032131
-0.016018
-0.032131
-0.032131
-0.024075
-0.032131
-0.040188
-0.032131
-0.016018
-0.048245
-0.048245
-0.096584
-0.048245
-0.048245
-0.007961
-0.040188
-0.048245
-0.032131
-0.040188
-0.072415
-0.040188
-0.048245
-0.048245
-0.056301
-0.048245
-0.064358
-0.056301
-0.096584
0.000095
0.145115
0.177341
0.290134
0.419041
0.531833
0.499607
0.539890
0.507664
0.499607
0.467380
0.427097
0.306248
0.257908
0.161228
0.137058
0.120945
0.088718
0.040378
0.008152
0.000095
-0.048245
-0.064358
-0.048245
-0.024075
-0.056301
-0.040188
-0.048245
-0.032131
-0.016018
-0.024075
-0.040188
-0.016018
-0.007961
-0.016018
-0.056301
-0.032131
-0.024075
-0.032131
-0.007961
-0.016018
-0.016018
-0.040188
-0.024075
-0.032131
-0.007961
0.016208
-0.032131
-0.007961
0.000095
-0.007961
-0.007961
-0.007961
0.008152
0.008152
-0.024075
0.016208
0.024265
-0.007961
0.024265
0.032322
-0.007961
-0.007961
0.000095
-0.024075
-0.016018
-0.007961
-0.096584
-0.273831
-0.370510
-0.386624
-0.394680
-0.402737
-0.386624
-0.354397
-0.330227
-0.281887
-0.209377
-0.144924
-0.120754
-0.104641
-0.136868
-0.088528
-0.072415
-0.040188
0.000095
-0.040188
-0.032131
0.024265
0.024265
-0.032131
0.016208
-0.016018
0.000095
-0.016018
0.000095
0.000095
-0.024075
-0.024075
-0.032131
0.000095
0.000095
-0.024075
-0.007961
-0.040188
-0.016018
0.000095
-0.024075
0.000095
-0.024075
-0.040188
-0.016018
-0.056301
-0.016018
-0.024075
-0.032131
-0.024075
-0.072415
-0.056301
-0.064358
-0.032131
-0.048245
-0.032131
-0.072415
-0.048245
-0.032131
-0.032131
-0.016018
-0.016018
-0.072415
-0.056301
0.048435
0.209568
0.298191
0.322361
0.322361
0.362644
0.370701
0.346531
0.330417
0.225681
0.177341
0.129001
0.112888
0.096775
0.032322
0.016208
0.024265
0.000095
-0.016018
-0.056301
-0.064358
-0.056301
-0.007961
0.088718
0.241794
0.185398
0.217624
0.185398
0.177341
0.153171
0.080662
0.137058
0.096775
0.072605
0.072605
0.072605
0.024265
0.024265
0.016208
0.008152
-0.007961
-0.024075
0.024265
0.000095
-0.016018
-0.016018
-0.016018
0.000095
0.000095
-0.016018
0.008152
0.040378
0.000095
0.000095
0.024265
-0.024075
-0.016018
-0.032131
0.000095
0.000095
-0.016018
0.000095
-0.007961
0.000095
-0.080471
-0.273831
-0.330227
-0.426907
-0.418850
-0.402737
-0.402737
-0.394680
-0.330227
-0.201321
-0.201321
-0.169094
-0.096584
-0.120754
-0.120754
-0.072415
-0.072415
-0.040188
-0.016018
0.000095
-0.007961
0.008152
0.000095
0.008152
-0.007961
0.000095
0.032322
0.000095
-0.007961
-0.048245
-0.024075
-0.032131
-0.007961
0.016208
0.000095
0.000095
0.000095
-0.007961
-0.048245
-0.032131
-0.032131
-0.048245
-0.040188
-0.032131
-0.024075
-0.032131
0.000095
0.000095
-0.040188
0.008152
-0.032131
-0.016018
-0.056301
0.000095
-0.040188
-0.024075
-0.024075
-0.040188
0.000095
0.000095
-0.056301
-0.048245
-0.072415
-0.072415
0.056492
0.217624
0.346531
0.314304
0.338474
0.386814
0.362644
0.338474
0.265964
0.225681
0.209568
0.193455
0.104832
0.080662
0.096775
0.072605
0.008152
-0.024075
0.008152
-0.024075
-0.016018
-0.007961
-0.040188
-0.016018
-0.056301
-0.007961
-0.048245
-0.024075
-0.024075
-0.007961
-0.040188
-0.007961
-0.007961
-0.032131
-0.064358
-0.024075
-0.040188
-0.048245
-0.040188
-0.016018
-0.024075
-0.064358
-0.016018
-0.040188
-0.016018
-0.040188
0.024265
-0.048245
0.000095
0.024265
0.000095
0.120945
0.249851
0.233738
0.257908
0.225681
0.209568
0.185398
0.129001
0.129001
0.112888
0.112888
0.080662
0.056492
-0.048245
-0.241604
-0.330227
-0.370510
-0.410793
-0.378567
-0.378567
-0.370510
-0.306057
-0.257717
-0.225491
-0.201321
-0.152981
-0.112698
-0.080471
-0.040188
-0.096584
-0.048245
-0.024075
-0.016018
0.000095
-0.007961
-0.007961
-0.016018
0.000095
-0.032131
-0.007961
0.008152
0.000095
0.000095
0.024265
0.056492
-0.024075
0.016208
-0.048245
-0.040188
0.000095
-0.024075
-0.056301
-0.032131
-0.048245
-0.024075
0.000095
-0.064358
-0.024075
-0.016018
-0.024075
-0.007961
-0.007961
-0.024075
-0.032131
-0.024075
-0.040188
-0.007961
0.008152
-0.032131
-0.048245
-0.007961
-0.016018
-0.024075
-0.048245
-0.048245
-0.040188
-0.048245
0.048435
0.233738
0.322361
0.330417
0.346531
0.346531
0.370701
0.386814
0.282078
0.257908
0.193455
0.153171
0.145115
0.088718
0.072605
0.064548
0.024265
0.040378
-0.016018
-0.032131
-0.024075
-0.024075
-0.032131
-0.040188
-0.016018
-0.016018
-0.048245
0.000095
-0.024075
-0.016018
-0.024075
-0.024075
0.008152
0.016208
0.000095
0.008152
-0.016018
-0.032131
0.016208
-0.024075
0.000095
0.000095
0.008152
0.000095
0.024265
-0.016018
0.032322
0.000095
-0.007961
0.008152
0.000095
0.000095
0.016208
0.016208
0.024265
0.000095
-0.007961
0.016208
0.000095
-0.007961
0.008152
0.000095
0.016208
-0.032131
-0.088528
-0.265774
-0.314114
-0.370510
-0.410793
-0.410793
-0.410793
-0.434963
-0.354397
-0.306057
-0.072415
0.016208
0.120945
0.104832
0.104832
0.096775
0.080662
0.088718
0.137058
0.088718
0.096775
0.080662
0.032322
0.008152
0.000095
0.008152
0.000095
0.032322
-0.007961
-0.007961
-0.024075
0.008152
-0.048245
0.000095
-0.016018
-0.056301
-0.016018
-0.040188
-0.032131
-0.048245
-0.024075
-0.024075
-0.056301
-0.048245
0.000095
-0.007961
0.016208
-0.040188
-0.016018
-0.056301
-0.007961
-0.048245
-0.040188
-0.024075
-0.096584
-0.032131
-0.016018
-0.064358
-0.032131
-0.064358
-0.040188
-0.056301
-0.016018
-0.032131
0.056492
0.257908
0.298191
0.314304
0.322361
0.338474
0.362644
0.370701
0.322361
0.233738
0.177341
0.129001
0.129001
0.064548
0.088718
0.048435
0.040378
-0.048245
0.000095
-0.007961
0.008152
-0.032131
-0.032131
-0.032131
-0.040188
-0.024075
-0.016018
-0.040188
-0.024075
-0.016018
-0.032131
-0.024075
-0.007961
-0.032131
-0.040188
-0.024075
-0.007961
-0.024075
-0.016018
-0.032131
-0.024075
0.008152
0.008152
0.008152
-0.016018
0.040378
0.024265
0.008152
0.008152
0.024265
0.032322
0.008152
-0.007961
0.016208
0.000095
0.000095
-0.032131
-0.016018
0.024265
0.016208
0.008152
0.016208
-0.007961
0.000095
-0.120754
-0.217434
-0.346340
-0.394680
-0.402737
-0.362454
-0.370510
-0.394680
-0.298001
-0.265774
-0.193264
-0.152981
-0.128811
-0.072415
-0.096584
-0.112698
-0.056301
-0.040188
-0.024075
-0.032131
-0.024075
-0.032131
0.024265
-0.007961
-0.016018
0.008152
-0.016018
0.008152
-0.024075
-0.048245
-0.032131
-0.007961
-0.024075
-0.032131
-0.016018
-0.048245
-0.024075
-0.016018
-0.064358
0.016208
0.120945
0.201511
0.201511
0.201511
0.201511
0.169285
0.177341
0.129001
0.104832
0.056492
0.080662
0.104832
0.040378
0.056492
0.040378
0.008152
-0.016018
-0.007961
-0.032131
-0.032131
-0.016018
-0.007961
-0.048245
-0.016018
0.032322
0.217624
0.290134
0.362644
0.354587
0.386814
0.370701
0.314304
0.298191
0.193455
0.185398
0.161228
0.096775
0.088718
0.056492
0.000095
0.016208
-0.016018
-0.016018
-0.016018
-0.024075
0.008152
-0.016018
-0.016018
-0.016018
-0.048245
-0.032131
-0.040188
-0.040188
-0.040188
-0.040188
-0.024075
0.000095
-0.032131
-0.007961
-0.024075
-0.024075
-0.016018
-0.024075
-0.032131
0.024265
-0.007961
-0.007961
0.000095
0.000095
-0.016018
-0.024075
0.024265
0.040378
-0.007961
0.016208
-0.024075
0.000095
-0.016018
0.000095
-0.040188
-0.016018
0.016208
-0.016018
-0.007961
-0.024075
-0.007961
0.000095
-0.016018
-0.080471
-0.249661
-0.362454
-0.354397
-0.394680
-0.418850
-0.394680
-0.386624
-0.338284
-0.257717
-0.225491
-0.185208
-0.144924
-0.104641
-0.048245
-0.080471
-0.064358
-0.032131
-0.024075
-0.024075
-0.016018
-0.016018
0.000095
-0.007961
-0.032131
-0.007961
-0.007961
0.000095
-0.007961
-0.016018
-0.024075
-0.016018
-0.024075
-0.024075
-0.048245
0.008152
-0.007961
-0.032131
-0.007961
-0.032131
-0.040188
-0.016018
-0.024075
-0.040188
-0.032131
-0.040188
-0.040188
-0.007961
-0.048245
-0.040188
-0.032131
-0.040188
-0.024075
-0.040188
-0.048245
-0.016018
-0.048245
-0.040188
-0.064358
-0.056301
-0.056301
-0.048245
-0.072415
-0.072415
0.056492
0.354587
0.531833
0.596287
0.604343
0.564060
0.523777
0.531833
0.451267
0.338474
0.282078
0.209568
0.145115
0.096775
0.072605
0.048435
0.032322
0.016208
0.000095
-0.016018
-0.024075
-0.040188
-0.024075
-0.024075
-0.032131
-0.056301
-0.024075
-0.032131
0.008152
-0.024075
-0.016018
-0.016018
-0.048245
-0.048245
-0.048245
-0.016018
-0.032131
-0.007961
-0.040188
-0.016018
-0.024075
-0.032131
-0.007961
0.008152
-0.007961
0.008152
-0.016018
-0.016018
0.000095
-0.007961
-0.016018
-0.016018
-0.007961
-0.040188
-0.007961
0.000095
-0.007961
0.008152
-0.048245
-0.024075
0.008152
-0.032131
-0.024075
0.016208
-0.120754
-0.314114
-0.322170
-0.386624
-0.410793
-0.410793
-0.386624
-0.378567
-0.354397
-0.289944
-0.201321
-0.152981
-0.112698
-0.136868
-0.096584
-0.096584
-0.040188
-0.072415
-0.024075
0.008152
-0.016018
0.008152
0.008152
-0.040188
0.040378
0.024265
0.000095
-0.024075
-0.032131
-0.024075
-0.007961
-0.016018
0.016208
0.000095
0.000095
-0.032131
-0.016018
-0.016018
0.000095
-0.007961
-0.040188
0.024265
-0.040188
-0.040188
-0.056301
-0.024075
-0.040188
-0.032131
-0.032131
-0.007961
-0.024075
-0.048245
-0.024075
-0.056301
-0.056301
-0.007961
-0.032131
-0.040188
0.000095
-0.024075
-0.040188
-0.056301
-0.016018
-0.056301
0.072605
0.241794
0.314304
0.338474
0.362644
0.354587
0.338474
0.338474
0.298191
0.225681
0.193455
0.161228
0.088718
0.072605
0.016208
0.048435
0.032322
0.016208
-0.007961
-0.056301
-0.040188
-0.048245
-0.024075
-0.040188
-0.048245
-0.048245
-0.056301
-0.072415
-0.007961
0.056492
0.185398
0.201511
0.241794
0.201511
0.193455
0.169285
0.145115
0.120945
0.120945
0.056492
0.064548
0.008152
0.008152
0.024265
0.016208
0.056492
0.048435
0.048435
0.016208
0.008152
-0.007961
-0.007961
-0.032131
0.008152
0.000095
-0.032131
-0.016018
-0.040188
-0.024075
-0.024075
-0.024075
0.000095
-0.007961
-0.016018
-0.120754
-0.289944
-0.346340
-0.402737
-0.394680
-0.418850
-0.394680
-0.378567
-0.298001
-0.249661
-0.185208
-0.136868
-0.120754
-0.128811
-0.096584
-0.072415
-0.048245
-0.040188
-0.016018
0.000095
-0.016018
0.024265
0.000095
-0.007961
0.000095
0.008152
-0.024075
-0.048245
0.016208
0.008152
-0.007961
-0.016018
-0.024075
-0.024075
-0.024075
-0.016018
0.000095
-0.024075
-0.040188
-0.048245
-0.016018
0.000095
0.008152
-0.040188
-0.016018
-0.032131
-0.032131
-0.016018
-0.040188
-0.040188
-0.064358
-0.016018
-0.024075
0.008152
-0.040188
-0.016018
-0.064358
-0.016018
-0.032131
-0.024075
-0.048245
-0.040188
-0.007961
-0.056301
0.080662
0.265964
0.346531
0.314304
0.378757
0.338474
0.346531
0.338474
0.282078
0.257908
0.169285
0.153171
0.088718
0.040378
0.080662
0.040378
0.024265
0.008152
0.000095
0.008152
-0.048245
-0.032131
-0.024075
-0.016018
-0.048245
0.008152
-0.024075
-0.040188
-0.007961
-0.016018
-0.040188
-0.040188
-0.007961
-0.016018
-0.024075
-0.048245
-0.032131
-0.024075
-0.016018
-0.032131
-0.007961
0.000095
0.000095
0.056492
-0.016018
-0.040188
-0.007961
-0.016018
-0.007961
0.008152
-0.032131
-0.007961
0.129001
0.209568
0.193455
0.241794
0.209568
0.209568
0.153171
0.129001
0.129001
0.088718
0.080662
0.072605
-0.048245
-0.209377
-0.330227
-0.322170
-0.394680
-0.370510
-0.346340
-0.354397
-0.338284
-0.273831
-0.193264
-0.177151
-0.144924
-0.120754
-0.128811
-0.104641
-0.088528
-0.056301
-0.056301
-0.024075
-0.040188
0.000095
-0.016018
-0.007961
-0.024075
0.000095
-0.032131
-0.024075
-0.016018
0.000095
-0.024075
-0.016018
0.000095
0.040378
-0.016018
-0.007961
-0.016018
-0.024075
-0.016018
-0.024075
-0.032131
-0.016018
-0.024075
-0.032131
-0.048245
-0.007961
-0.032131
-0.056301
-0.040188
-0.024075
-0.040188
-0.024075
-0.007961
-0.032131
-0.032131
0.008152
-0.040188
-0.040188
-0.040188
-0.032131
-0.048245
-0.024075
-0.016018
0.000095
0.080662
0.217624
0.290134
0.322361
0.298191
0.362644
0.370701
0.354587
0.306248
0.217624
0.177341
0.145115
0.112888
0.088718
0.064548
0.024265
0.032322
-0.032131
0.000095
-0.007961
-0.016018
-0.040188
-0.040188
-0.040188
-0.032131
0.000095
-0.024075
-0.016018
-0.016018
-0.024075
-0.024075
0.008152
-0.016018
-0.024075
-0.016018
-0.064358
-0.024075
-0.024075
-0.040188
-0.024075
-0.007961
-0.016018
-0.032131
0.008152
-0.032131
0.000095
-0.007961
0.000095
0.016208
-0.040188
0.024265
0.024265
0.016208
-0.024075
-0.032131
0.024265
0.032322
-0.007961
-0.007961
0.040378
0.008152
-0.016018
0.000095
-0.024075
-0.088528
-0.241604
-0.370510
-0.402737
-0.386624
-0.434963
-0.386624
-0.378567
-0.354397
-0.289944
-0.225491
-0.144924
-0.169094
-0.120754
-0.128811
-0.096584
-0.056301
-0.032131
0.112888
0.233738
0.233738
0.233738
0.201511
0.177341
0.153171
0.137058
0.145115
0.088718
0.048435
0.024265
0.040378
0.000095
-0.007961
-0.024075
0.008152
0.000095
-0.007961
-0.032131
0.016208
-0.016018
0.000095
-0.024075
-0.024075
-0.040188
-0.024075
-0.024075
-0.007961
-0.024075
-0.040188
-0.048245
-0.032131
-0.016018
-0.016018
-0.048245
-0.056301
-0.024075
-0.040188
-0.007961
-0.032131
-0.072415
-0.040188
-0.007961
0.000095
-0.024075
0.064548
0.217624
0.274021
0.322361
0.338474
0.346531
0.386814
0.330417
0.298191
0.217624
0.193455
0.169285
0.088718
0.080662
0.072605
0.024265
0.032322
0.000095
0.000095
0.016208
-0.040188
-0.016018
-0.007961
-0.007961
-0.007961
0.000095
-0.016018
-0.032131
-0.016018
-0.016018
-0.024075
0.000095
0.000095
-0.032131
-0.007961
-0.007961
-0.007961
-0.032131
-0.007961
-0.016018
0.000095
-0.024075
0.024265
0.000095
-0.016018
-0.024075
-0.024075
0.000095
0.000095
0.024265
-0.007961
0.016208
0.008152
0.032322
0.024265
0.024265
0.000095
0.008152
0.024265
-0.024075
0.016208
0.000095
0.000095
-0.007961
-0.112698
-0.281887
-0.306057
-0.362454
-0.378567
-0.394680
-0.394680
-0.354397
-0.306057
-0.241604
-0.217434
-0.161038
-0.112698
-0.112698
-0.096584
-0.064358
-0.040188
0.008152
-0.024075
0.008152
-0.024075
0.008152
0.016208
-0.007961
0.000095
-0.016018
-0.024075
-0.016018
-0.007961
-0.048245
-0.032131
-0.016018
-0.024075
-0.016018
-0.016018
-0.040188
-0.048245
-0.032131
-0.024075
-0.080471
-0.048245
-0.040188
-0.024075
0.112888
0.185398
0.217624
0.217624
0.177341
0.209568
0.177341
0.104832
0.088718
0.064548
0.056492
0.024265
0.008152
0.008152
-0.007961
-0.007961
-0.032131
-0.016018
-0.048245
-0.080471
-0.040188
0.072605
0.217624
0.314304
0.314304
0.322361
0.346531
0.338474
0.322361
0.282078
0.209568
0.185398
0.129001
0.096775
0.080662
0.024265
0.024265
0.024265
0.016208
0.032322
-0.040188
-0.032131
-0.048245
-0.016018
0.000095
-0.032131
-0.072415
0.024265
-0.040188
-0.024075
-0.040188
-0.024075
-0.040188
-0.056301
-0.032131
-0.032131
-0.024075
-0.072415
0.008152
-0.032131
0.024265
0.008152
0.016208
-0.016018
-0.016018
0.000095
-0.007961
-0.040188
-0.024075
0.000095
-0.007961
0.008152
-0.016018
0.008152
0.016208
0.000095
0.000095
-0.007961
-0.007961
-0.024075
0.008152
0.032322
0.008152
0.000095
0.008152
-0.136868
-0.249661
-0.362454
-0.386624
-0.402737
-0.394680
-0.394680
-0.378567
-0.330227
-0.257717
-0.185208
-0.169094
-0.136868
-0.104641
-0.064358
-0.048245
-0.016018
-0.040188
-0.040188
0.000095
-0.024075
0.000095
0.016208
0.016208
-0.032131
-0.016018
0.000095
0.016208
-0.016018
-0.016018
0.024265
0.000095
0.016208
-0.016018
0.000095
-0.016018
0.000095
-0.016018
-0.040188
-0.016018
-0.040188
-0.024075
-0.056301
-0.016018
-0.024075
-0.016018
-0.007961
-0.048245
-0.056301
-0.024075
-0.032131
-0.048245
-0.048245
-0.016018
-0.032131
-0.064358
-0.007961
-0.024075
-0.072415
-0.048245
-0.032131
-0.024075
-0.064358
-0.016018
0.064548
0.225681
0.249851
0.298191
0.330417
0.338474
0.330417
0.427097
0.475437
0.459324
0.427097
0.354587
0.314304
0.257908
0.217624
0.185398
0.161228
0.120945
0.129001
0.024265
0.032322
-0.016018
-0.007961
-0.016018
-0.048245
-0.032131
-0.048245
-0.056301
-0.040188
-0.016018
-0.040188
0.008152
-0.056301
-0.016018
-0.040188
-0.016018
-0.024075
0.000095
-0.007961
-0.032131
-0.032131
0.000095
-0.024075
-0.007961
0.008152
0.032322
0.008152
0.000095
-0.016018
-0.007961
-0.007961
-0.007961
0.032322
0.000095
0.016208
0.024265
0.000095
0.016208
0.000095
0.032322
0.008152
0.024265
-0.016018
0.008152
-0.128811
-0.289944
-0.354397
-0.362454
-0.402737
-0.426907
-0.386624
-0.378567
-0.330227
-0.273831
-0.177151
-0.169094
-0.144924
-0.104641
-0.080471
-0.040188
-0.048245
-0.032131
-0.024075
0.000095
-0.024075
0.000095
-0.007961
-0.007961
0.008152
-0.007961
-0.007961
0.024265
-0.016018
0.016208
-0.007961
-0.007961
0.008152
-0.007961
-0.024075
-0.007961
-0.032131
-0.040188
-0.024075
0.008152
-0.007961
-0.007961
-0.024075
-0.007961
0.016208
-0.016018
0.032322
-0.032131
-0.032131
-0.007961
-0.007961
-0.032131
-0.032131
-0.032131
-0.040188
-0.048245
0.008152
0.008152
-0.056301
0.008152
-0.040188
-0.056301
-0.024075
-0.016018
0.088718
0.209568
0.314304
0.362644
0.362644
0.370701
0.354587
0.354587
0.282078
0.193455
0.193455
0.145115
0.080662
0.072605
0.056492
0.048435
0.008152
-0.007961
-0.032131
-0.024075
-0.032131
0.000095
-0.016018
-0.056301
-0.032131
-0.040188
-0.040188
-0.064358
-0.056301
-0.056301
0.024265
0.153171
0.185398
0.249851
0.193455
0.169285
0.137058
0.169285
0.145115
0.104832
0.040378
0.024265
0.072605
-0.007961
-0.007961
-0.024075
0.000095
-0.016018
0.032322
-0.024075
0.008152
0.000095
0.016208
-0.032131
0.016208
-0.024075
-0.016018
0.000095
0.000095
0.000095
0.032322
-0.024075
0.000095
0.000095
-0.120754
-0.289944
-0.362454
-0.394680
-0.370510
-0.378567
-0.402737
-0.322170
-0.330227
-0.257717
-0.241604
-0.128811
-0.120754
-0.080471
-0.112698
-0.096584
-0.088528
-0.024075
-0.024075
-0.024075
-0.032131
0.008152
0.008152
-0.032131
-0.016018
-0.007961
-0.024075
0.008152
0.032322
-0.007961
0.008152
0.008152
-0.007961
0.000095
-0.007961
0.000095
0.000095
-0.016018
0.016208
-0.040188
0.008152
0.000095
-0.040188
-0.024075
-0.040188
-0.016018
-0.032131
-0.048245
-0.024075
-0.040188
-0.024075
-0.024075
-0.024075
-0.048245
0.008152
-0.072415
-0.056301
-0.007961
-0.040188
-0.016018
-0.056301
-0.056301
-0.040188
-0.007961
0.088718
