-0.515554
-0.580008
-0.596121
-0.507498
-0.443045
-0.459158
-0.451101
-0.443045
-0.378592
-0.378592
-0.362478
-0.346365
-0.314138
-0.249685
-0.201345
-0.169119
-0.161062
-0.177176
-0.128836
-0.153006
-0.153006
-0.136892
-0.112722
-0.120779
-0.088552
-0.064383
-0.007986
-0.007986
-0.016043
0.000071
-0.024099
-0.016043
0.000071
-0.016043
-0.007986
-0.024099
-0.007986
-0.016043
-0.040213
-0.056326
-0.048269
-0.032156
-0.056326
-0.032156
-0.040213
-0.024099
-0.048269
-0.016043
-0.032156
-0.032156
-0.024099
-0.040213
-0.064383
-0.064383
-0.032156
-0.040213
-0.032156
-0.024099
-0.032156
-0.064383
-0.064383
-0.048269
0.000071
0.185373
0.427073
0.612375
0.644602
0.596262
0.564035
0.580149
0.539865
0.515696
0.507639
0.491526
0.475412
0.483469
0.475412
0.394846
0.330393
0.265940
0.233713
0.217600
0.169260
0.161203
0.153147
0.104807
0.120920
0.072580
0.112864
0.040354
-0.007986
-0.007986
-0.007986
-0.024099
-0.048269
-0.040213
-0.007986
-0.007986
-0.007986
0.000071
-0.048269
-0.016043
-0.024099
0.008127
-0.040213
0.000071
-0.007986
0.008127
-0.024099
-0.007986
-0.016043
0.008127
-0.007986
0.008127
-0.048269
0.000071
-0.007986
0.016184
0.000071
0.008127
0.008127
0.008127
-0.016043
0.000071
0.000071
0.000071
-0.016043
0.000071
-0.153006
-0.467215
-0.523611
-0.531668
-0.588064
-0.539724
-0.531668
-0.547781
-0.515554
-0.443045
-0.434988
-0.459158
-0.426931
-0.402761
-0.306082
-0.273855
-0.217459
-0.193289
-0.161062
-0.161062
0.000071
0.120920
0.145090
0.145090
0.145090
0.169260
0.161203
0.169260
0.104807
0.056467
0.032297
0.024240
0.032297
0.016184
0.008127
0.008127
-0.032156
-0.007986
-0.024099
-0.032156
-0.040213
-0.024099
-0.007986
-0.040213
-0.032156
-0.056326
-0.040213
-0.016043
-0.072439
-0.032156
-0.007986
-0.040213
-0.032156
-0.040213
-0.048269
-0.056326
-0.072439
-0.048269
-0.056326
-0.072439
-0.040213
-0.072439
-0.080496
-0.080496
-0.040213
0.024240
0.249826
0.346506
0.427073
0.435129
0.467356
0.467356
0.427073
0.427073
0.394846
0.370676
0.370676
0.282053
0.249826
0.209543
0.161203
0.137033
0.112864
0.104807
0.064524
0.056467
0.048410
0.032297
0.016184
-0.040213
-0.016043
-0.056326
-0.024099
-0.007986
0.008127
-0.024099
-0.048269
-0.032156
-0.016043
-0.024099
-0.016043
-0.032156
0.008127
0.016184
0.008127
-0.016043
-0.016043
-0.040213
0.008127
-0.032156
0.000071
0.032297
0.000071
-0.032156
-0.016043
0.000071
-0.007986
-0.016043
0.000071
-0.007986
-0.032156
-0.016043
-0.007986
0.000071
-0.007986
0.008127
0.008127
0.008127
0.016184
-0.007986
-0.024099
-0.144949
-0.306082
-0.410818
-0.467215
-0.491385
-0.443045
-0.443045
-0.410818
-0.434988
-0.378592
-0.314138
-0.225515
-0.217459
-0.169119
-0.136892
-0.104666
-0.128836
-0.104666
-0.048269
-0.048269
0.000071
0.000071
-0.024099
0.000071
0.008127
0.008127
0.016184
0.008127
0.016184
-0.007986
0.016184
-0.040213
-0.032156
0.000071
-0.016043
-0.024099
-0.040213
-0.032156
-0.032156
-0.056326
0.080637
0.185373
0.217600
0.185373
0.161203
0.112864
0.145090
0.096750
0.000071
-0.007986
0.000071
0.008127
-0.007986
0.000071
-0.032156
-0.056326
-0.040213
-0.040213
-0.048269
-0.032156
-0.048269
-0.048269
-0.048269
-0.040213
0.088694
0.265940
0.354563
0.402903
0.402903
0.410959
0.378733
0.386789
0.354563
0.338449
0.273996
0.233713
0.177317
0.153147
0.128977
0.072580
0.080637
0.048410
0.008127
0.032297
-0.007986
-0.007986
-0.032156
-0.040213
-0.024099
-0.016043
-0.040213
-0.007986
-0.032156
-0.032156
-0.007986
-0.032156
-0.016043
-0.007986
0.024240
-0.048269
-0.007986
-0.016043
-0.007986
-0.024099
-0.032156
-0.040213
0.000071
-0.032156
0.008127
-0.024099
0.000071
0.016184
0.008127
0.016184
-0.032156
0.000071
0.000071
0.016184
-0.024099
0.000071
0.000071
0.008127
0.024240
0.000071
0.008127
0.032297
0.008127
0.008127
-0.064383
-0.257742
-0.386648
-0.443045
-0.434988
-0.402761
-0.370535
-0.410818
-0.434988
-0.378592
-0.322195
-0.281912
-0.177176
-0.153006
-0.136892
-0.096609
-0.088552
-0.072439
-0.064383
-0.040213
-0.016043
0.008127
0.016184
0.008127
-0.007986
0.000071
0.016184
0.000071
0.008127
0.024240
0.000071
-0.024099
0.008127
-0.007986
0.008127
-0.024099
-0.016043
-0.007986
0.000071
-0.032156
-0.024099
-0.024099
-0.016043
-0.016043
-0.040213
-0.064383
-0.040213
-0.040213
-0.032156
-0.056326
-0.040213
-0.048269
-0.040213
-0.007986
-0.032156
-0.032156
-0.032156
-0.048269
-0.024099
-0.032156
-0.032156
-0.056326
-0.056326
-0.048269
0.016184
0.201487
0.282053
0.378733
0.370676
0.427073
0.539865
0.580149
0.612375
0.555979
0.491526
0.410959
0.298166
0.249826
0.193430
0.153147
0.088694
0.080637
0.056467
0.032297
0.056467
-0.016043
0.016184
-0.040213
-0.007986
0.016184
-0.016043
0.024240
-0.016043
-0.016043
-0.032156
-0.024099
-0.024099
-0.016043
-0.032156
-0.024099
-0.040213
-0.024099
-0.016043
-0.032156
-0.040213
0.024240
0.008127
0.008127
-0.007986
0.024240
-0.016043
-0.016043
0.016184
-0.007986
0.016184
0.000071
0.016184
0.000071
0.000071
-0.007986
0.024240
0.016184
0.016184
0.016184
-0.024099
0.016184
-0.007986
0.008127
-0.032156
-0.201345
-0.322195
-0.410818
-0.434988
-0.386648
-0.402761
-0.410818
-0.394705
-0.362478
-0.306082
-0.249685
-0.169119
-0.161062
-0.136892
-0.096609
-0.096609
-0.080496
-0.048269
-0.040213
-0.007986
-0.040213
0.000071
0.016184
-0.007986
0.024240
0.040354
0.024240
0.016184
0.000071
-0.007986
-0.024099
-0.007986
0.000071
0.008127
0.008127
0.000071
-0.032156
-0.032156
-0.007986
0.000071
-0.056326
-0.016043
-0.032156
-0.032156
-0.048269
-0.048269
-0.032156
-0.007986
-0.024099
-0.024099
-0.040213
-0.007986
-0.016043
-0.024099
-0.048269
-0.007986
-0.016043
-0.040213
-0.024099
-0.048269
-0.040213
-0.048269
-0.056326
0.016184
0.193430
0.322336
0.378733
0.378733
0.394846
0.362619
0.346506
0.378733
0.306223
0.257883
0.209543
0.153147
0.137033
0.080637
0.096750
0.048410
0.056467
0.008127
0.000071
-0.032156
-0.048269
-0.040213
-0.048269
-0.007986
0.008127
0.000071
-0.007986
-0.032156
-0.032156
-0.016043
0.072580
0.201487
0.225657
0.177317
0.193430
0.161203
0.120920
0.096750
0.080637
0.048410
0.000071
0.000071
-0.016043
-0.007986
0.000071
0.000071
-0.016043
0.008127
-0.007986
0.008127
0.008127
-0.024099
-0.024099
0.000071
0.000071
-0.007986
0.024240
0.032297
0.024240
0.008127
0.008127
0.032297
0.032297
-0.056326
-0.201345
-0.322195
-0.426931
-0.418875
-0.378592
-0.370535
-0.402761
-0.386648
-0.362478
-0.314138
-0.201345
-0.169119
-0.144949
-0.128836
-0.088552
-0.088552
-0.040213
-0.040213
-0.016043
-0.024099
0.000071
-0.007986
-0.016043
-0.016043
-0.007986
0.032297
0.016184
-0.007986
-0.016043
0.016184
0.000071
0.024240
0.032297
0.000071
-0.016043
-0.016043
0.024240
-0.007986
-0.016043
0.016184
-0.007986
-0.040213
-0.016043
-0.024099
-0.016043
-0.056326
-0.040213
-0.032156
-0.024099
-0.024099
-0.032156
-0.064383
-0.032156
-0.032156
-0.032156
-0.016043
-0.040213
-0.024099
-0.040213
-0.056326
-0.016043
-0.040213
-0.007986
0.024240
0.145090
0.290110
0.370676
0.386789
0.419016
0.346506
0.402903
0.386789
0.330393
0.273996
0.217600
0.169260
0.112864
0.104807
0.096750
0.088694
0.056467
0.048410
-0.007986
-0.007986
-0.040213
-0.048269
-0.016043
-0.032156
-0.016043
-0.048269
-0.007986
-0.040213
-0.024099
-0.024099
-0.024099
-0.016043
-0.016043
-0.032156
-0.016043
0.000071
0.000071
-0.007986
-0.032156
-0.040213
0.008127
-0.016043
0.000071
-0.040213
-0.032156
-0.032156
0.000071
-0.007986
0.000071
-0.016043
-0.007986
0.008127
-0.016043
-0.024099
-0.016043
-0.040213
0.008127
0.000071
0.104807
0.209543
0.273996
0.241770
0.209543
0.161203
-0.080496
-0.265799
-0.330252
-0.394705
-0.402761
-0.386648
-0.402761
-0.362478
-0.346365
-0.306082
-0.217459
-0.185232
-0.128836
-0.120779
-0.088552
-0.048269
-0.048269
-0.024099
-0.040213
0.000071
0.040354
-0.016043
0.024240
0.008127
-0.032156
-0.016043
0.024240
-0.016043
-0.024099
0.008127
0.008127
0.000071
-0.032156
0.000071
-0.016043
-0.016043
0.008127
-0.016043
-0.024099
-0.016043
-0.016043
0.024240
-0.024099
-0.024099
-0.016043
-0.048269
-0.016043
-0.032156
-0.040213
-0.016043
-0.024099
-0.048269
-0.032156
-0.056326
-0.016043
-0.024099
-0.024099
-0.032156
-0.016043
-0.056326
-0.048269
-0.016043
-0.024099
0.008127
0.225657
0.322336
0.362619
0.394846
0.402903
0.386789
0.378733
0.354563
0.322336
0.233713
0.225657
0.185373
0.153147
0.104807
0.112864
0.064524
0.064524
0.056467
-0.007986
0.008127
0.008127
-0.024099
0.008127
-0.032156
-0.024099
-0.040213
-0.040213
-0.056326
-0.024099
-0.024099
0.000071
-0.007986
-0.007986
-0.024099
0.024240
0.032297
-0.032156
-0.032156
0.000071
0.008127
-0.007986
0.000071
0.016184
0.024240
0.032297
0.032297
-0.007986
0.000071
0.016184
-0.007986
0.000071
-0.024099
-0.007986
0.008127
0.000071
-0.007986
0.016184
-0.016043
-0.007986
0.024240
0.016184
0.000071
0.040354
-0.072439
-0.233572
-0.354422
-0.426931
-0.394705
-0.434988
-0.378592
-0.362478
-0.394705
-0.378592
-0.298025
-0.209402
-0.193289
-0.153006
-0.144949
-0.128836
-0.112722
-0.056326
0.056467
0.161203
0.249826
0.241770
0.217600
0.177317
0.193430
0.120920
0.080637
0.064524
0.024240
0.016184
0.040354
0.040354
0.016184
0.008127
0.008127
0.008127
-0.007986
-0.024099
-0.007986
-0.032156
-0.016043
-0.016043
-0.056326
0.000071
-0.024099
-0.016043
-0.024099
-0.016043
-0.024099
-0.032156
-0.032156
-0.016043
-0.024099
-0.032156
-0.048269
-0.032156
-0.024099
-0.040213
-0.016043
-0.048269
-0.056326
-0.016043
-0.024099
-0.007986
0.056467
0.217600
0.306223
0.378733
0.410959
0.402903
0.378733
0.394846
0.386789
0.322336
0.241770
0.201487
0.161203
0.088694
0.112864
0.072580
0.040354
0.016184
0.032297
0.008127
0.016184
0.016184
0.008127
-0.016043
0.008127
-0.032156
-0.007986
-0.016043
-0.024099
0.024240
-0.032156
-0.016043
-0.040213
-0.016043
-0.007986
0.016184
0.000071
-0.032156
-0.040213
0.008127
-0.024099
0.024240
0.016184
0.016184
0.008127
-0.040213
0.016184
0.024240
0.024240
0.040354
0.024240
0.016184
0.032297
0.000071
0.008127
0.016184
0.016184
0.008127
0.016184
0.016184
-0.007986
-0.016043
0.008127
0.000071
-0.056326
-0.217459
-0.354422
-0.402761
-0.394705
-0.426931
-0.362478
-0.443045
-0.386648
-0.322195
-0.273855
-0.201345
-0.185232
-0.128836
-0.104666
-0.080496
-0.080496
-0.056326
-0.032156
-0.032156
0.000071
0.032297
0.000071
-0.032156
0.000071
0.032297
0.008127
0.000071
-0.007986
0.000071
-0.024099
0.000071
-0.016043
-0.024099
-0.040213
-0.024099
-0.032156
-0.016043
-0.040213
-0.032156
-0.040213
-0.016043
-0.048269
-0.024099
-0.040213
-0.072439
-0.056326
0.000071
0.137033
0.209543
0.209543
0.193430
0.177317
0.128977
0.080637
0.032297
0.056467
0.064524
0.040354
0.024240
-0.040213
-0.024099
-0.032156
-0.024099
0.072580
0.265940
0.322336
0.435129
0.386789
0.386789
0.370676
0.354563
0.362619
0.346506
0.241770
0.185373
0.153147
0.112864
0.080637
0.096750
0.080637
0.040354
0.008127
0.016184
0.000071
-0.016043
0.008127
-0.016043
-0.016043
0.032297
-0.024099
-0.024099
-0.024099
-0.032156
-0.007986
-0.016043
-0.007986
-0.007986
-0.032156
0.016184
0.008127
-0.007986
-0.007986
-0.024099
-0.016043
0.000071
-0.016043
0.008127
-0.016043
0.000071
-0.016043
0.016184
-0.007986
-0.007986
-0.016043
0.024240
-0.007986
0.056467
0.056467
0.000071
0.016184
0.032297
0.024240
0.000071
-0.007986
0.000071
0.000071
0.000071
-0.080496
-0.241629
-0.354422
-0.426931
-0.394705
-0.410818
-0.402761
-0.370535
-0.402761
-0.330252
-0.289968
-0.185232
-0.177176
-0.136892
-0.104666
-0.088552
-0.096609
-0.080496
-0.048269
-0.024099
-0.007986
0.008127
0.016184
0.040354
-0.040213
0.016184
-0.007986
-0.016043
-0.024099
-0.040213
-0.007986
0.016184
0.032297
-0.024099
-0.007986
0.000071
-0.007986
0.000071
-0.024099
-0.007986
-0.024099
-0.016043
-0.024099
-0.032156
-0.024099
-0.016043
-0.007986
-0.032156
-0.064383
-0.040213
-0.040213
-0.032156
-0.007986
-0.072439
-0.007986
-0.032156
-0.040213
-0.048269
-0.056326
-0.056326
-0.024099
-0.048269
-0.040213
-0.064383
0.072580
0.249826
0.314280
0.402903
0.322336
0.354563
0.346506
0.362619
0.378733
0.451242
0.427073
0.402903
0.362619
0.306223
0.265940
0.201487
0.193430
0.145090
0.112864
0.040354
0.000071
-0.016043
-0.016043
-0.032156
-0.032156
-0.016043
-0.040213
-0.007986
-0.016043
0.032297
-0.024099
0.000071
0.000071
0.000071
-0.048269
-0.016043
-0.048269
0.008127
0.024240
-0.007986
-0.016043
-0.007986
0.000071
-0.007986
0.000071
0.040354
0.000071
0.024240
-0.024099
0.000071
0.008127
0.016184
-0.007986
0.000071
0.024240
0.024240
-0.007986
0.008127
0.024240
0.016184
0.032297
-0.016043
0.016184
0.000071
-0.096609
-0.289968
-0.402761
-0.426931
-0.418875
-0.394705
-0.410818
-0.354422
-0.306082
-0.338308
-0.241629
-0.209402
-0.169119
-0.161062
-0.112722
-0.088552
-0.088552
-0.040213
-0.040213
-0.016043
-0.007986
-0.007986
0.024240
0.000071
0.032297
0.000071
-0.007986
0.000071
-0.016043
-0.024099
0.008127
-0.016043
-0.007986
-0.040213
0.000071
0.000071
0.008127
0.000071
-0.056326
-0.016043
-0.007986
-0.024099
-0.048269
0.000071
-0.056326
-0.007986
0.008127
-0.007986
-0.024099
-0.040213
-0.056326
-0.048269
-0.016043
-0.032156
-0.056326
-0.048269
-0.048269
-0.024099
-0.040213
-0.024099
-0.048269
-0.032156
-0.007986
0.000071
0.080637
0.225657
0.370676
0.402903
0.378733
0.354563
0.378733
0.354563
0.338449
0.298166
0.249826
0.161203
0.185373
0.112864
0.088694
0.080637
0.040354
0.064524
0.024240
-0.007986
0.008127
-0.016043
-0.016043
-0.048269
-0.048269
-0.056326
-0.048269
-0.040213
-0.032156
-0.040213
-0.016043
-0.048269
-0.048269
-0.024099
-0.016043
-0.016043
0.008127
0.112864
0.185373
0.209543
0.249826
0.249826
0.185373
0.177317
0.145090
0.096750
0.080637
0.000071
0.032297
0.008127
0.024240
0.008127
0.000071
0.016184
0.016184
0.024240
0.000071
0.008127
-0.007986
0.016184
0.008127
-0.016043
0.000071
-0.024099
-0.080496
-0.265799
-0.386648
-0.434988
-0.402761
-0.402761
-0.410818
-0.410818
-0.370535
-0.330252
-0.233572
-0.185232
-0.193289
-0.104666
-0.136892
-0.104666
-0.072439
-0.080496
-0.040213
-0.040213
0.040354
0.000071
0.008127
-0.007986
0.024240
0.016184
0.008127
0.016184
0.008127
0.024240
0.000071
0.016184
0.008127
0.000071
-0.016043
-0.024099
0.000071
0.024240
0.000071
-0.024099
-0.016043
-0.007986
0.000071
-0.024099
-0.007986
-0.048269
-0.024099
-0.032156
-0.024099
-0.040213
-0.040213
-0.032156
-0.024099
-0.040213
-0.040213
-0.040213
-0.048269
-0.016043
-0.016043
0.000071
-0.024099
-0.007986
-0.040213
0.008127
0.128977
0.273996
0.370676
0.435129
0.394846
0.386789
0.419016
0.370676
0.378733
0.306223
0.201487
0.193430
0.120920
0.145090
0.096750
0.088694
0.072580
0.032297
0.032297
-0.024099
0.000071
0.040354
-0.040213
-0.024099
-0.007986
-0.024099
-0.040213
-0.040213
-0.032156
-0.032156
-0.024099
-0.024099
-0.024099
0.032297
0.016184
0.032297
-0.016043
0.008127
-0.007986
0.000071
0.024240
-0.024099
-0.007986
0.000071
-0.007986
0.008127
-0.007986
0.032297
-0.032156
0.000071
-0.024099
-0.016043
-0.007986
0.008127
0.008127
0.024240
0.008127
-0.024099
-0.007986
-0.007986
0.096750
0.217600
0.233713
0.225657
0.064524
-0.088552
-0.209402
-0.306082
-0.298025
-0.354422
-0.314138
-0.346365
-0.378592
-0.314138
-0.209402
-0.209402
-0.153006
-0.120779
-0.088552
-0.088552
-0.104666
-0.056326
-0.072439
-0.032156
-0.016043
-0.007986
0.000071
0.000071
-0.032156
-0.007986
-0.032156
-0.007986
-0.007986
0.000071
0.000071
-0.032156
0.000071
0.024240
0.000071
-0.016043
0.000071
0.000071
0.008127
-0.007986
-0.016043
0.024240
-0.024099
0.008127
-0.024099
-0.040213
-0.032156
-0.024099
-0.048269
-0.032156
-0.024099
-0.032156
-0.016043
-0.007986
-0.016043
-0.016043
-0.040213
-0.040213
-0.016043
0.000071
-0.032156
-0.007986
-0.032156
-0.032156
0.112864
0.282053
0.378733
0.394846
0.370676
0.394846
0.378733
0.386789
0.354563
0.273996
0.217600
0.169260
0.137033
0.128977
0.080637
0.056467
0.048410
0.048410
0.008127
0.008127
0.000071
0.008127
-0.016043
-0.007986
-0.007986
-0.040213
-0.064383
0.000071
-0.048269
-0.007986
-0.024099
-0.016043
-0.040213
-0.007986
0.048410
-0.007986
0.016184
-0.016043
-0.007986
-0.007986
0.000071
0.008127
0.000071
0.016184
0.016184
0.008127
0.024240
0.000071
-0.024099
0.032297
-0.007986
0.008127
-0.007986
0.024240
0.008127
0.008127
-0.016043
0.000071
0.008127
0.008127
0.000071
-0.016043
-0.016043
0.000071
-0.161062
-0.322195
-0.362478
-0.410818
-0.410818
-0.402761
-0.386648
-0.386648
-0.346365
-0.265799
-0.225515
-0.193289
-0.161062
-0.136892
-0.112722
-0.080496
-0.056326
-0.056326
-0.048269
-0.040213
-0.016043
0.008127
0.016184
-0.007986
0.008127
0.048410
0.201487
0.249826
0.257883
0.257883
0.201487
0.193430
0.169260
0.072580
0.048410
0.000071
0.016184
-0.024099
0.016184
-0.040213
0.000071
0.008127
-0.032156
-0.056326
-0.032156
-0.040213
-0.040213
-0.040213
0.000071
-0.007986
-0.056326
-0.032156
-0.040213
-0.040213
-0.032156
-0.032156
-0.007986
-0.007986
-0.048269
-0.040213
0.000071
-0.024099
-0.032156
0.000071
0.153147
0.298166
0.394846
0.402903
0.346506
0.378733
0.386789
0.370676
0.362619
0.257883
0.217600
0.177317
0.128977
0.137033
0.080637
0.048410
0.064524
0.032297
0.016184
-0.007986
-0.007986
0.000071
0.000071
0.016184
-0.007986
-0.024099
-0.032156
-0.032156
-0.016043
-0.016043
-0.024099
-0.016043
-0.007986
-0.016043
0.000071
0.008127
0.008127
0.024240
-0.007986
-0.016043
0.008127
-0.007986
-0.007986
-0.016043
-0.024099
-0.016043
0.000071
-0.040213
-0.024099
-0.016043
0.000071
0.008127
-0.032156
0.032297
0.000071
0.032297
0.008127
0.008127
-0.024099
0.024240
0.024240
0.016184
0.008127
-0.007986
-0.177176
-0.322195
-0.402761
-0.418875
-0.386648
-0.402761
-0.418875
-0.402761
-0.394705
-0.306082
-0.233572
-0.185232
-0.120779
-0.128836
-0.096609
-0.096609
-0.088552
-0.072439
-0.024099
0.000071
0.032297
-0.007986
0.024240
0.024240
0.008127
0.000071
0.000071
0.000071
-0.016043
-0.007986
0.000071
-0.016043
-0.024099
-0.016043
-0.016043
-0.024099
0.000071
-0.032156
-0.016043
-0.016043
0.000071
-0.032156
-0.016043
-0.032156
-0.032156
-0.040213
-0.032156
-0.048269
-0.040213
-0.024099
0.000071
0.104807
0.217600
0.201487
0.209543
0.193430
0.137033
0.153147
0.072580
0.040354
0.016184
0.016184
-0.016043
-0.024099
0.193430
0.322336
0.378733
0.402903
0.402903
0.386789
0.354563
0.370676
0.354563
0.265940
0.209543
0.153147
0.137033
0.104807
0.104807
0.096750
0.024240
0.048410
0.032297
-0.032156
0.016184
0.000071
-0.024099
-0.024099
-0.032156
0.000071
-0.032156
-0.007986
0.000071
-0.007986
-0.024099
-0.056326
-0.016043
-0.016043
0.032297
-0.007986
-0.024099
-0.016043
-0.016043
-0.016043
0.008127
-0.016043
0.016184
-0.007986
-0.007986
-0.007986
0.016184
0.024240
0.032297
-0.024099
0.032297
-0.032156
0.016184
0.000071
0.016184
0.024240
0.000071
-0.016043
0.000071
0.000071
-0.007986
0.008127
-0.040213
-0.024099
-0.193289
-0.338308
-0.410818
-0.394705
-0.394705
-0.386648
-0.418875
-0.386648
-0.354422
-0.265799
-0.201345
-0.177176
-0.161062
-0.096609
-0.072439
-0.040213
-0.048269
-0.040213
-0.032156
0.048410
-0.024099
-0.007986
-0.007986
0.008127
0.008127
0.024240
0.000071
0.016184
0.000071
0.016184
0.000071
0.032297
-0.007986
-0.016043
0.000071
-0.024099
0.008127
0.000071
-0.016043
-0.007986
-0.040213
0.000071
-0.032156
-0.007986
-0.016043
-0.007986
-0.032156
-0.032156
-0.024099
-0.040213
-0.032156
-0.032156
-0.048269
0.008127
-0.024099
-0.048269
-0.024099
0.016184
-0.016043
-0.048269
-0.016043
-0.048269
-0.040213
0.024240
0.161203
0.298166
0.362619
0.410959
0.354563
0.370676
0.330393
0.362619
0.314280
0.265940
0.193430
0.177317
0.128977
0.096750
0.072580
0.201487
0.249826
0.314280
0.265940
0.193430
0.177317
0.153147
0.072580
0.088694
0.032297
0.016184
0.016184
0.008127
-0.024099
0.008127
0.000071
-0.024099
0.000071
-0.032156
-0.024099
-0.032156
0.016184
-0.040213
0.000071
0.000071
0.008127
0.032297
0.000071
0.016184
0.008127
-0.007986
0.000071
-0.007986
0.016184
-0.024099
-0.016043
0.000071
0.000071
0.000071
0.000071
-0.016043
-0.016043
-0.032156
0.032297
0.048410
0.024240
0.008127
0.008127
-0.032156
-0.185232
-0.289968
-0.434988
-0.451101
-0.410818
-0.418875
-0.402761
-0.370535
-0.314138
-0.249685
-0.201345
-0.153006
-0.144949
-0.096609
-0.088552
-0.056326
-0.072439
-0.040213
0.000071
-0.016043
0.000071
0.008127
0.000071
0.008127
0.008127
0.016184
0.024240
0.008127
0.000071
0.032297
0.000071
-0.007986
-0.032156
-0.007986
0.024240
-0.040213
0.024240
0.024240
0.016184
-0.032156
0.008127
0.000071
-0.007986
-0.007986
-0.016043
0.032297
-0.024099
-0.024099
-0.024099
-0.048269
-0.024099
-0.016043
-0.032156
-0.016043
-0.032156
-0.024099
-0.024099
0.016184
-0.024099
-0.016043
-0.040213
-0.048269
-0.007986
0.024240
0.209543
0.330393
0.410959
0.402903
0.402903
0.427073
0.419016
0.386789
0.338449
0.282053
0.185373
0.177317
0.104807
0.120920
0.104807
0.056467
0.056467
0.008127
0.016184
-0.007986
-0.007986
-0.007986
-0.016043
-0.016043
-0.024099
-0.024099
-0.016043
-0.032156
-0.040213
-0.040213
-0.024099
-0.056326
-0.048269
0.000071
0.000071
-0.048269
0.000071
-0.032156
0.072580
0.209543
0.241770
0.225657
0.225657
0.201487
0.153147
0.177317
0.112864
0.064524
0.056467
0.064524
0.032297
0.000071
0.016184
-0.032156
-0.007986
-0.024099
-0.007986
-0.024099
-0.016043
-0.007986
0.008127
0.016184
0.016184
-0.048269
-0.217459
-0.346365
-0.402761
-0.418875
-0.386648
-0.378592
-0.402761
-0.378592
-0.330252
-0.281912
-0.241629
-0.136892
-0.153006
-0.136892
-0.096609
-0.112722
-0.024099
-0.007986
-0.032156
0.000071
-0.024099
0.016184
0.024240
0.000071
-0.032156
0.008127
0.040354
0.008127
0.024240
-0.032156
0.000071
0.008127
-0.007986
0.000071
-0.032156
0.032297
-0.032156
-0.007986
0.000071
-0.016043
0.000071
-0.032156
-0.024099
0.000071
-0.032156
-0.032156
-0.024099
-0.024099
-0.032156
-0.040213
-0.040213
-0.024099
-0.016043
-0.016043
-0.032156
-0.007986
-0.007986
-0.048269
-0.016043
-0.056326
-0.032156
-0.007986
0.008127
0.040354
0.241770
0.346506
0.386789
0.410959
0.362619
0.378733
0.394846
0.346506
0.306223
0.265940
0.193430
0.137033
0.137033
0.088694
0.104807
0.080637
0.040354
0.024240
0.000071
-0.007986
-0.024099
-0.016043
-0.040213
-0.024099
-0.024099
-0.048269
-0.024099
-0.024099
0.000071
-0.016043
-0.016043
-0.024099
-0.007986
-0.024099
0.032297
-0.032156
0.008127
-0.016043
-0.024099
-0.007986
0.000071
0.000071
-0.007986
0.000071
-0.032156
0.008127
-0.007986
0.000071
0.016184
0.016184
-0.016043
0.000071
-0.007986
0.024240
0.008127
-0.007986
0.000071
0.000071
0.008127
-0.016043
-0.024099
-0.024099
-0.024099
-0.080496
-0.209402
-0.370535
-0.418875
-0.378592
-0.217459
-0.185232
-0.185232
-0.161062
-0.153006
-0.080496
-0.016043
-0.007986
-0.007986
-0.040213
-0.024099
-0.056326
-0.024099
-0.016043
0.000071
0.008127
0.000071
0.040354
-0.024099
0.032297
0.024240
0.000071
0.016184
-0.007986
0.016184
0.000071
-0.007986
0.000071
0.024240
-0.007986
-0.007986
-0.016043
0.040354
0.040354
-0.007986
-0.016043
-0.040213
0.000071
-0.032156
-0.040213
-0.056326
0.000071
0.008127
-0.032156
-0.007986
-0.024099
-0.007986
-0.056326
-0.048269
-0.048269
-0.016043
-0.024099
-0.024099
-0.040213
-0.016043
0.008127
-0.048269
-0.032156
-0.040213
0.040354
0.193430
0.322336
0.394846
0.386789
0.394846
0.386789
0.386789
0.338449
0.314280
0.249826
0.193430
0.137033
0.161203
0.096750
0.064524
0.080637
0.064524
0.000071
0.000071
-0.007986
-0.024099
-0.024099
-0.040213
-0.032156
-0.048269
-0.007986
-0.016043
-0.032156
-0.016043
0.000071
-0.024099
-0.032156
-0.048269
-0.032156
-0.040213
-0.032156
-0.040213
0.000071
0.000071
-0.040213
0.016184
-0.007986
0.024240
0.000071
-0.016043
0.024240
-0.007986
0.024240
-0.007986
-0.007986
0.000071
0.016184
-0.007986
0.040354
-0.024099
0.016184
0.040354
0.008127
0.016184
-0.024099
-0.016043
0.040354
-0.032156
-0.072439
-0.233572
-0.354422
-0.418875
-0.410818
-0.402761
-0.394705
-0.394705
-0.370535
-0.346365
-0.273855
-0.233572
-0.185232
-0.104666
-0.104666
-0.112722
-0.088552
-0.088552
-0.016043
-0.024099
-0.024099
-0.016043
0.008127
0.016184
-0.016043
0.000071
-0.007986
-0.048269
-0.024099
0.000071
0.088694
0.241770
0.241770
0.225657
0.201487
0.169260
0.153147
0.137033
0.096750
0.072580
0.024240
0.008127
0.016184
0.008127
-0.007986
0.008127
-0.007986
-0.032156
-0.040213
-0.032156
-0.032156
0.000071
-0.032156
-0.048269
-0.040213
-0.056326
-0.024099
-0.016043
-0.024099
-0.007986
-0.040213
-0.040213
-0.040213
-0.024099
0.008127
0.225657
0.290110
0.362619
0.402903
0.338449
0.370676
0.354563
0.346506
0.322336
0.233713
0.225657
0.185373
0.096750
0.088694
0.080637
0.064524
0.056467
0.000071
-0.016043
-0.024099
-0.056326
-0.048269
-0.024099
-0.007986
-0.056326
-0.032156
-0.056326
-0.032156
-0.032156
-0.040213
-0.007986
-0.007986
0.000071
-0.024099
-0.016043
-0.032156
-0.016043
-0.007986
0.016184
-0.016043
0.000071
-0.007986
-0.016043
-0.032156
-0.007986
-0.016043
0.000071
0.016184
0.008127
0.000071
-0.016043
0.000071
-0.007986
0.000071
0.000071
0.032297
-0.007986
0.008127
0.016184
0.016184
0.032297
-0.024099
0.024240
-0.120779
-0.233572
-0.354422
-0.434988
-0.386648
-0.394705
-0.394705
-0.402761
-0.410818
-0.298025
-0.273855
-0.185232
-0.169119
-0.144949
-0.104666
-0.064383
-0.072439
-0.064383
-0.032156
-0.007986
-0.007986
0.008127
0.040354
0.040354
0.016184
0.016184
0.000071
0.008127
0.008127
0.008127
0.016184
-0.016043
0.024240
0.000071
0.000071
-0.007986
0.000071
-0.024099
0.008127
0.000071
-0.032156
-0.040213
-0.016043
-0.016043
-0.007986
-0.024099
-0.016043
0.000071
-0.048269
-0.032156
-0.040213
-0.064383
-0.032156
-0.072439
-0.016043
-0.056326
-0.072439
-0.056326
0.072580
0.193430
0.209543
0.225657
0.161203
0.153147
0.233713
0.402903
0.467356
0.483469
0.443186
0.402903
0.370676
0.419016
0.370676
0.273996
0.282053
0.177317
0.145090
0.137033
0.088694
0.088694
0.064524
0.056467
0.000071
-0.024099
-0.032156
-0.024099
-0.032156
-0.024099
-0.032156
-0.024099
0.016184
-0.032156
-0.064383
-0.007986
-0.016043
-0.007986
-0.040213
-0.007986
-0.016043
-0.007986
-0.007986
-0.016043
-0.007986
0.008127
0.016184
-0.007986
0.016184
-0.007986
-0.007986
0.032297
0.024240
0.008127
-0.024099
0.000071
0.008127
0.008127
0.024240
0.008127
0.008127
0.032297
-0.007986
-0.016043
-0.007986
0.056467
0.008127
-0.016043
-0.007986
0.000071
-0.120779
-0.249685
-0.394705
-0.394705
-0.402761
-0.386648
-0.418875
-0.378592
-0.386648
-0.314138
-0.273855
-0.209402
-0.104666
-0.177176
-0.128836
-0.104666
-0.104666
-0.040213
-0.016043
-0.016043
-0.007986
0.016184
0.032297
0.008127
0.008127
-0.007986
0.008127
0.016184
-0.016043
0.040354
-0.032156
0.040354
0.000071
-0.032156
0.008127
0.000071
0.008127
-0.040213
-0.007986
0.008127
-0.024099
0.008127
0.008127
0.000071
0.008127
-0.048269
-0.048269
-0.032156
-0.024099
-0.040213
0.016184
-0.048269
-0.016043
-0.024099
-0.024099
-0.032156
-0.007986
-0.016043
-0.032156
-0.016043
-0.024099
-0.016043
-0.032156
-0.024099
0.072580
0.257883
0.346506
0.386789
0.402903
0.354563
0.370676
0.370676
0.362619
0.290110
0.233713
0.193430
0.137033
0.104807
0.032297
0.056467
0.048410
0.137033
0.217600
0.249826
0.257883
0.193430
0.177317
0.120920
0.056467
0.096750
0.032297
0.032297
0.008127
-0.024099
-0.016043
-0.024099
-0.024099
-0.024099
-0.040213
0.008127
-0.007986
-0.007986
-0.024099
-0.016043
-0.016043
0.000071
-0.007986
-0.016043
-0.016043
0.016184
0.000071
0.000071
-0.007986
0.000071
-0.007986
-0.007986
0.024240
-0.024099
0.008127
0.000071
0.024240
0.008127
0.000071
-0.007986
-0.007986
-0.024099
0.000071
-0.024099
-0.096609
-0.249685
-0.378592
-0.426931
-0.410818
-0.434988
-0.434988
-0.418875
-0.370535
-0.298025
-0.249685
-0.193289
-0.177176
-0.128836
-0.104666
-0.088552
-0.096609
-0.088552
-0.024099
-0.032156
-0.007986
0.000071
-0.007986
-0.007986
0.000071
0.008127
0.008127
-0.016043
0.000071
0.008127
-0.007986
-0.016043
0.016184
0.008127
0.008127
0.000071
0.008127
-0.024099
-0.016043
-0.040213
-0.024099
-0.007986
-0.040213
-0.040213
-0.007986
-0.040213
-0.016043
-0.032156
-0.016043
0.008127
-0.007986
-0.024099
-0.024099
-0.048269
-0.040213
-0.040213
0.016184
-0.024099
0.000071
0.000071
-0.024099
-0.040213
-0.032156
-0.016043
0.120920
0.257883
0.362619
0.394846
0.354563
0.354563
0.402903
0.338449
0.330393
0.265940
0.217600
0.153147
0.128977
0.128977
0.096750
0.048410
0.040354
0.032297
-0.007986
-0.024099
0.016184
-0.024099
-0.040213
-0.040213
0.000071
-0.016043
-0.032156
-0.056326
-0.016043
-0.032156
0.000071
-0.024099
-0.024099
-0.032156
-0.040213
-0.024099
-0.040213
-0.016043
-0.024099
0.000071
-0.024099
-0.040213
-0.016043
-0.016043
0.008127
0.000071
0.008127
0.153147
0.241770
0.241770
0.241770
0.209543
0.201487
0.209543
0.145090
0.104807
0.104807
0.064524
0.056467
0.056467
0.080637
0.040354
