-2.536140
-2.971199
-1.633796
-0.973152
-0.763679
-0.675056
-0.457527
-0.360847
-0.239998
-0.167488
-0.103035
-0.103035
-0.054695
-0.046638
-0.006355
-0.014412
0.001702
-0.030525
-0.014412
-0.054695
-0.054695
-0.030525
-0.054695
-0.022468
-0.070808
-0.094978
-0.054695
-0.094978
-0.119148
-0.143318
-0.151375
-0.159431
-0.183601
-0.167488
-0.199714
-0.191658
-0.223884
-0.199714
-0.215828
-0.191658
-0.175544
-0.223884
-0.159431
-0.207771
-0.167488
-0.183601
-0.151375
-0.135261
-0.127205
-0.103035
-0.119148
-0.103035
-0.062752
-0.062752
-0.078865
-0.086921
0.066155
0.396477
0.549553
0.597893
0.573723
0.589836
0.565666
0.541497
0.509270
0.493157
0.493157
0.460930
0.452873
0.420647
0.380364
0.323967
0.291741
0.235344
0.203118
0.170891
0.162834
0.195061
0.122551
0.130608
0.114495
0.066155
0.050041
-0.006355
-0.014412
0.001702
0.017815
-0.022468
-0.006355
0.025872
-0.014412
-0.014412
-0.014412
0.001702
-0.006355
-0.030525
0.001702
-0.014412
0.009758
-0.014412
-0.014412
-0.006355
-0.006355
0.001702
0.025872
-0.006355
0.001702
-0.022468
0.025872
0.009758
-0.014412
-0.014412
-0.014412
0.025872
0.009758
-0.030525
-0.006355
-0.014412
0.009758
0.041985
0.017815
-0.094978
-0.336677
-0.481697
-0.521980
-0.521980
-0.538093
-0.538093
-0.530037
-0.465584
-0.489753
-0.457527
-0.465584
-0.401130
-0.328621
-0.336677
-0.231941
-0.151375
0.025872
0.074211
0.074211
0.098381
0.106438
0.098381
0.074211
0.033928
0.058098
0.033928
0.041985
0.017815
0.017815
0.066155
0.001702
0.001702
0.001702
-0.030525
-0.030525
-0.022468
-0.022468
-0.014412
-0.022468
-0.030525
-0.046638
-0.038582
-0.046638
-0.062752
-0.062752
-0.062752
-0.086921
-0.094978
-0.094978
-0.086921
-0.054695
-0.070808
-0.046638
-0.038582
-0.046638
-0.070808
-0.070808
-0.062752
-0.038582
-0.038582
-0.038582
-0.006355
-0.046638
0.009758
0.138664
0.332024
0.420647
0.436760
0.485100
0.501213
0.485100
0.428704
0.412590
0.364250
0.412590
0.372307
0.299797
0.259514
0.195061
0.146721
0.138664
0.146721
0.106438
0.066155
0.058098
0.066155
0.050041
-0.006355
-0.014412
-0.014412
-0.022468
-0.006355
-0.014412
-0.014412
-0.030525
-0.030525
0.017815
-0.022468
-0.006355
-0.030525
-0.006355
-0.022468
-0.030525
0.001702
-0.014412
-0.014412
0.001702
-0.006355
-0.022468
-0.014412
0.009758
0.025872
0.001702
0.001702
-0.022468
0.001702
0.001702
0.017815
-0.022468
0.009758
-0.006355
0.017815
0.001702
0.017815
0.001702
0.017815
0.001702
0.009758
0.009758
0.001702
-0.078865
-0.264168
-0.360847
-0.449470
-0.425300
-0.449470
-0.368904
-0.409187
-0.385017
-0.352791
-0.304451
-0.231941
-0.199714
-0.119148
-0.127205
-0.111091
-0.111091
-0.103035
-0.062752
-0.038582
-0.046638
-0.006355
0.001702
0.009758
-0.014412
-0.006355
-0.006355
-0.014412
0.001702
-0.038582
-0.030525
-0.030525
0.009758
-0.022468
-0.014412
-0.038582
-0.062752
-0.038582
-0.070808
0.122551
0.162834
0.178948
0.154778
0.122551
0.098381
0.098381
0.050041
0.001702
0.017815
0.001702
0.025872
-0.054695
-0.006355
-0.030525
-0.022468
-0.038582
-0.046638
-0.062752
-0.038582
-0.022468
-0.022468
-0.022468
-0.046638
-0.022468
0.033928
0.203118
0.348137
0.396477
0.404534
0.380364
0.372307
0.380364
0.348137
0.340081
0.267571
0.195061
0.178948
0.146721
0.130608
0.090325
0.098381
0.074211
0.041985
0.025872
-0.006355
-0.022468
-0.006355
-0.046638
-0.006355
-0.030525
-0.022468
-0.006355
-0.006355
0.050041
-0.022468
-0.022468
-0.030525
-0.038582
-0.006355
0.001702
0.001702
0.025872
-0.038582
0.009758
-0.022468
-0.022468
-0.006355
0.001702
0.001702
0.058098
0.009758
-0.006355
-0.014412
0.025872
0.017815
0.009758
0.025872
0.009758
0.001702
0.017815
0.017815
0.001702
0.001702
0.009758
0.041985
0.009758
0.025872
0.001702
-0.030525
-0.183601
-0.304451
-0.401130
-0.425300
-0.376961
-0.409187
-0.393074
-0.393074
-0.360847
-0.296394
-0.199714
-0.167488
-0.127205
-0.127205
-0.046638
-0.070808
-0.054695
-0.062752
-0.022468
0.033928
-0.014412
0.001702
0.009758
0.017815
-0.014412
-0.006355
0.025872
-0.006355
0.017815
-0.014412
-0.022468
0.001702
-0.006355
-0.014412
-0.046638
0.001702
-0.006355
-0.006355
-0.006355
-0.046638
-0.014412
-0.022468
-0.030525
-0.046638
-0.054695
-0.038582
-0.038582
-0.054695
-0.030525
-0.038582
-0.046638
-0.046638
-0.046638
-0.062752
-0.022468
-0.046638
-0.054695
-0.054695
-0.054695
-0.030525
-0.046638
-0.046638
-0.046638
-0.014412
0.138664
0.283684
0.485100
0.565666
0.646233
0.646233
0.605950
0.549553
0.477043
0.388420
0.251457
0.227288
0.187004
0.170891
0.098381
0.082268
0.090325
0.050041
-0.014412
0.058098
0.009758
-0.022468
-0.006355
-0.022468
-0.006355
0.017815
-0.006355
-0.014412
-0.022468
-0.038582
-0.014412
-0.046638
-0.006355
-0.006355
-0.014412
0.001702
0.017815
0.009758
-0.006355
0.009758
0.009758
-0.006355
-0.022468
-0.006355
0.033928
-0.022468
0.017815
0.009758
0.017815
-0.030525
0.009758
0.041985
0.025872
0.025872
0.001702
0.017815
0.025872
0.033928
-0.014412
0.033928
0.009758
0.009758
0.025872
0.001702
-0.143318
-0.304451
-0.328621
-0.368904
-0.376961
-0.385017
-0.385017
-0.368904
-0.328621
-0.256111
-0.167488
-0.151375
-0.135261
-0.111091
-0.094978
-0.094978
-0.054695
-0.054695
0.001702
0.001702
-0.022468
-0.006355
0.025872
0.033928
0.017815
0.009758
0.033928
0.033928
-0.006355
0.009758
-0.022468
-0.006355
-0.006355
-0.038582
-0.014412
-0.038582
0.001702
-0.062752
-0.014412
-0.038582
-0.030525
-0.038582
-0.030525
-0.054695
0.001702
-0.062752
-0.022468
-0.006355
-0.038582
-0.014412
-0.038582
-0.054695
-0.014412
-0.046638
-0.014412
-0.038582
-0.006355
-0.022468
-0.022468
-0.046638
-0.014412
-0.006355
-0.022468
-0.006355
0.122551
0.291741
0.340081
0.364250
0.348137
0.356194
0.364250
0.356194
0.299797
0.243401
0.178948
0.187004
0.146721
0.098381
0.098381
0.050041
0.041985
0.017815
0.001702
0.001702
-0.038582
-0.030525
-0.022468
0.025872
-0.014412
0.066155
0.178948
0.243401
0.203118
0.195061
0.187004
0.154778
0.122551
0.058098
0.041985
0.009758
-0.006355
0.033928
0.001702
-0.022468
-0.038582
-0.006355
-0.030525
0.009758
-0.022468
0.001702
0.009758
0.001702
-0.030525
-0.014412
-0.006355
0.001702
0.009758
-0.014412
0.001702
-0.014412
0.017815
0.001702
0.009758
0.009758
-0.006355
0.009758
-0.014412
-0.014412
-0.135261
-0.328621
-0.368904
-0.385017
-0.376961
-0.385017
-0.360847
-0.376961
-0.320564
-0.272224
-0.215828
-0.175544
-0.135261
-0.119148
-0.094978
-0.078865
-0.022468
-0.062752
-0.070808
-0.022468
-0.006355
0.009758
0.017815
0.017815
-0.014412
0.033928
0.025872
0.009758
0.009758
-0.022468
0.009758
0.001702
-0.014412
0.009758
-0.030525
-0.022468
-0.038582
-0.006355
-0.014412
-0.046638
-0.006355
-0.054695
-0.030525
-0.014412
-0.038582
-0.030525
-0.022468
-0.014412
-0.030525
-0.030525
-0.022468
-0.062752
-0.054695
-0.014412
-0.022468
-0.014412
-0.062752
-0.038582
-0.030525
-0.030525
-0.030525
-0.014412
-0.030525
-0.006355
0.122551
0.267571
0.348137
0.380364
0.396477
0.356194
0.356194
0.348137
0.299797
0.267571
0.195061
0.170891
0.114495
0.090325
0.082268
0.082268
0.041985
0.041985
0.017815
-0.014412
-0.014412
0.009758
-0.030525
-0.038582
-0.030525
-0.006355
-0.030525
-0.006355
-0.038582
-0.038582
-0.046638
-0.022468
-0.038582
-0.006355
0.017815
-0.022468
-0.014412
0.001702
-0.014412
0.009758
-0.022468
0.001702
0.009758
-0.014412
-0.006355
-0.006355
-0.006355
0.009758
0.001702
-0.006355
-0.030525
-0.022468
0.017815
0.001702
0.001702
0.154778
0.227288
0.283684
0.219231
0.235344
0.162834
0.154778
0.114495
0.058098
-0.103035
-0.304451
-0.344734
-0.376961
-0.385017
-0.352791
-0.344734
-0.385017
-0.320564
-0.248054
-0.183601
-0.167488
-0.159431
-0.111091
-0.103035
-0.054695
-0.054695
-0.046638
0.001702
-0.006355
-0.006355
0.009758
0.001702
-0.014412
0.001702
-0.014412
0.025872
0.001702
-0.014412
0.001702
0.017815
-0.006355
0.017815
-0.022468
-0.006355
0.001702
-0.022468
0.001702
0.001702
-0.006355
-0.006355
-0.022468
-0.030525
-0.014412
-0.022468
-0.022468
-0.014412
-0.022468
-0.014412
-0.014412
0.009758
-0.046638
-0.038582
-0.030525
-0.014412
-0.030525
-0.054695
-0.014412
-0.046638
-0.022468
-0.006355
0.009758
-0.022468
-0.006355
0.138664
0.283684
0.348137
0.380364
0.356194
0.364250
0.372307
0.356194
0.307854
0.219231
0.203118
0.162834
0.114495
0.106438
0.082268
0.066155
0.033928
0.017815
0.009758
-0.022468
0.001702
-0.030525
-0.014412
-0.030525
-0.022468
-0.046638
-0.022468
-0.022468
-0.022468
-0.014412
-0.014412
-0.022468
-0.038582
-0.014412
-0.038582
-0.014412
-0.014412
-0.022468
-0.014412
0.001702
-0.030525
-0.014412
-0.006355
0.001702
0.009758
0.009758
0.009758
0.001702
-0.014412
0.009758
0.009758
0.009758
0.017815
0.001702
-0.022468
-0.014412
-0.014412
-0.014412
-0.014412
0.025872
0.017815
0.017815
0.009758
-0.038582
-0.199714
-0.328621
-0.401130
-0.393074
-0.393074
-0.360847
-0.409187
-0.360847
-0.328621
-0.256111
-0.239998
-0.175544
-0.111091
-0.111091
-0.111091
-0.086921
0.025872
0.122551
0.187004
0.203118
0.187004
0.170891
0.146721
0.074211
0.050041
0.066155
0.017815
0.050041
0.017815
0.009758
0.033928
-0.014412
-0.006355
-0.022468
0.009758
0.017815
0.009758
-0.030525
-0.014412
-0.014412
-0.022468
-0.038582
-0.030525
-0.030525
-0.006355
-0.014412
-0.014412
-0.022468
-0.022468
-0.046638
-0.030525
-0.030525
-0.038582
-0.030525
-0.046638
-0.054695
-0.054695
-0.030525
-0.030525
-0.014412
-0.006355
-0.014412
-0.014412
-0.006355
0.162834
0.299797
0.348137
0.356194
0.356194
0.323967
0.380364
0.348137
0.291741
0.219231
0.195061
0.138664
0.122551
0.098381
0.050041
0.041985
0.033928
0.009758
-0.022468
-0.022468
0.001702
-0.038582
-0.022468
-0.030525
-0.014412
0.009758
0.001702
-0.030525
-0.014412
-0.038582
-0.014412
-0.006355
-0.030525
-0.014412
-0.006355
-0.014412
-0.014412
-0.006355
0.025872
-0.014412
-0.014412
-0.006355
0.001702
0.025872
0.017815
0.033928
0.009758
0.025872
0.017815
-0.022468
0.025872
-0.006355
0.041985
0.017815
0.009758
0.017815
-0.030525
-0.014412
-0.014412
0.001702
0.041985
-0.014412
0.001702
-0.006355
-0.183601
-0.336677
-0.376961
-0.409187
-0.385017
-0.376961
-0.393074
-0.368904
-0.312507
-0.248054
-0.191658
-0.135261
-0.111091
-0.094978
-0.078865
-0.046638
-0.030525
-0.062752
-0.030525
-0.006355
0.017815
-0.022468
-0.022468
0.009758
0.009758
0.017815
0.009758
0.041985
0.033928
0.033928
0.001702
0.025872
-0.014412
0.017815
-0.006355
-0.062752
-0.022468
-0.014412
-0.038582
-0.038582
-0.030525
-0.054695
-0.030525
-0.046638
0.058098
0.146721
0.219231
0.235344
0.203118
0.187004
0.130608
0.050041
0.025872
0.017815
0.001702
-0.014412
0.017815
-0.006355
0.001702
0.001702
-0.038582
-0.022468
-0.014412
0.025872
0.203118
0.299797
0.396477
0.372307
0.372307
0.380364
0.332024
0.356194
0.259514
0.219231
0.154778
0.114495
0.130608
0.090325
0.098381
0.050041
0.033928
0.041985
-0.006355
0.025872
0.009758
0.001702
-0.006355
-0.006355
-0.038582
-0.014412
-0.030525
-0.030525
0.033928
-0.022468
-0.022468
0.009758
0.017815
0.001702
-0.022468
0.033928
0.017815
0.009758
0.009758
-0.030525
0.009758
0.025872
0.001702
0.017815
0.001702
0.017815
0.017815
0.009758
0.001702
-0.030525
0.017815
0.009758
0.009758
-0.022468
0.041985
0.025872
0.017815
0.033928
0.001702
0.009758
0.017815
0.009758
0.025872
-0.014412
-0.191658
-0.296394
-0.368904
-0.376961
-0.368904
-0.376961
-0.401130
-0.352791
-0.296394
-0.223884
-0.175544
-0.167488
-0.111091
-0.111091
-0.094978
-0.038582
-0.046638
-0.022468
-0.038582
0.009758
-0.006355
0.017815
0.001702
0.025872
-0.014412
0.001702
0.041985
-0.006355
0.001702
-0.014412
-0.030525
0.009758
-0.022468
0.009758
-0.006355
0.009758
-0.014412
0.009758
-0.006355
-0.006355
-0.006355
-0.006355
-0.030525
-0.038582
-0.006355
-0.006355
0.017815
-0.030525
-0.030525
-0.022468
-0.038582
-0.054695
-0.014412
-0.030525
-0.046638
-0.038582
-0.030525
-0.030525
-0.038582
-0.054695
-0.030525
-0.014412
-0.014412
0.025872
0.187004
0.315911
0.356194
0.396477
0.517327
0.605950
0.597893
0.525383
0.477043
0.364250
0.235344
0.203118
0.146721
0.114495
0.082268
0.074211
0.041985
0.050041
0.009758
-0.014412
-0.038582
-0.030525
-0.038582
-0.014412
-0.046638
-0.006355
0.001702
0.001702
-0.022468
-0.014412
0.001702
-0.030525
0.001702
-0.022468
-0.014412
0.009758
-0.014412
0.017815
0.009758
-0.030525
0.009758
-0.014412
0.001702
0.017815
0.001702
0.017815
0.009758
-0.014412
0.041985
0.041985
-0.006355
0.017815
0.009758
0.001702
0.009758
-0.006355
0.009758
-0.014412
0.009758
0.033928
0.050041
-0.006355
0.001702
-0.078865
-0.239998
-0.344734
-0.360847
-0.368904
-0.344734
-0.401130
-0.401130
-0.352791
-0.296394
-0.223884
-0.159431
-0.151375
-0.127205
-0.103035
-0.086921
-0.094978
-0.046638
-0.054695
0.017815
-0.038582
-0.006355
0.009758
-0.022468
0.009758
0.001702
0.009758
0.009758
0.001702
0.001702
-0.022468
0.017815
-0.022468
0.001702
-0.014412
-0.006355
-0.030525
-0.006355
-0.014412
-0.022468
-0.022468
0.001702
-0.022468
-0.030525
-0.030525
-0.022468
-0.022468
-0.038582
-0.006355
-0.022468
-0.030525
-0.038582
-0.014412
-0.014412
-0.022468
0.009758
-0.038582
-0.070808
-0.038582
-0.030525
-0.006355
0.009758
0.001702
-0.022468
0.050041
0.195061
0.332024
0.372307
0.356194
0.348137
0.348137
0.356194
0.348137
0.267571
0.211174
0.146721
0.138664
0.114495
0.082268
0.090325
0.041985
0.017815
0.033928
-0.014412
-0.014412
0.001702
-0.030525
-0.006355
-0.014412
-0.038582
-0.038582
-0.022468
-0.030525
-0.006355
-0.062752
-0.046638
-0.038582
-0.038582
0.074211
0.162834
0.235344
0.219231
0.211174
0.178948
0.170891
0.122551
0.074211
0.058098
0.017815
0.033928
0.009758
0.033928
0.050041
0.001702
0.058098
0.009758
0.017815
0.058098
0.017815
0.025872
0.017815
0.033928
0.017815
-0.006355
-0.022468
0.025872
0.033928
0.001702
-0.070808
-0.239998
-0.352791
-0.336677
-0.368904
-0.376961
-0.360847
-0.360847
-0.336677
-0.272224
-0.207771
-0.183601
-0.143318
-0.143318
-0.086921
-0.062752
-0.054695
-0.054695
-0.030525
0.009758
-0.006355
0.041985
0.025872
-0.030525
0.001702
0.017815
-0.014412
0.041985
-0.014412
0.025872
0.009758
0.017815
0.017815
0.009758
-0.006355
-0.022468
-0.030525
0.001702
-0.014412
-0.030525
-0.038582
-0.006355
-0.022468
-0.014412
-0.030525
-0.014412
-0.022468
0.001702
-0.030525
-0.014412
-0.022468
-0.038582
-0.038582
-0.046638
-0.022468
-0.046638
0.001702
-0.038582
-0.030525
-0.006355
-0.006355
-0.006355
-0.014412
-0.014412
0.074211
0.211174
0.315911
0.380364
0.372307
0.356194
0.340081
0.348137
0.299797
0.275627
0.219231
0.162834
0.122551
0.074211
0.114495
0.058098
0.082268
0.017815
0.017815
-0.022468
-0.030525
-0.014412
-0.038582
-0.030525
-0.022468
-0.014412
-0.030525
-0.014412
-0.014412
-0.038582
-0.054695
-0.030525
-0.014412
0.001702
-0.022468
-0.006355
-0.014412
0.009758
-0.022468
0.009758
0.001702
-0.006355
-0.006355
0.025872
0.033928
0.009758
0.001702
0.017815
-0.006355
-0.014412
-0.014412
-0.014412
0.009758
-0.022468
-0.006355
-0.030525
0.001702
-0.030525
-0.046638
0.082268
0.203118
0.227288
0.251457
0.219231
0.122551
-0.094978
-0.231941
-0.264168
-0.352791
-0.328621
-0.368904
-0.352791
-0.360847
-0.312507
-0.223884
-0.167488
-0.143318
-0.103035
-0.111091
-0.070808
-0.054695
-0.030525
0.001702
0.009758
0.001702
0.017815
0.001702
0.025872
0.009758
-0.006355
0.009758
-0.006355
-0.006355
-0.022468
0.009758
0.009758
-0.014412
0.009758
-0.046638
-0.006355
0.001702
-0.006355
0.017815
-0.006355
-0.014412
-0.046638
-0.014412
-0.006355
-0.030525
-0.014412
-0.014412
-0.014412
0.009758
-0.022468
-0.038582
-0.030525
-0.014412
-0.014412
0.017815
-0.014412
0.009758
-0.022468
-0.022468
-0.046638
-0.038582
-0.030525
-0.014412
-0.030525
0.082268
0.227288
0.340081
0.340081
0.364250
0.372307
0.348137
0.356194
0.323967
0.243401
0.187004
0.154778
0.162834
0.106438
0.058098
0.050041
0.017815
0.001702
0.009758
0.001702
-0.030525
-0.038582
-0.014412
-0.046638
-0.014412
-0.046638
0.009758
-0.006355
-0.030525
-0.030525
-0.006355
-0.014412
0.009758
-0.022468
-0.022468
-0.030525
-0.006355
0.001702
0.001702
0.025872
-0.014412
-0.006355
-0.006355
0.017815
0.017815
0.009758
-0.022468
0.001702
0.025872
0.009758
0.017815
-0.022468
-0.006355
0.025872
0.009758
0.009758
0.001702
0.009758
0.025872
0.009758
0.033928
0.009758
0.009758
-0.022468
-0.103035
-0.256111
-0.360847
-0.401130
-0.360847
-0.352791
-0.425300
-0.393074
-0.328621
-0.280281
-0.207771
-0.191658
-0.127205
-0.111091
-0.111091
-0.086921
-0.046638
-0.030525
-0.030525
-0.022468
-0.038582
-0.006355
-0.006355
0.050041
0.162834
0.243401
0.243401
0.235344
0.195061
0.154778
0.122551
0.082268
0.066155
0.050041
0.033928
0.025872
-0.006355
0.009758
-0.006355
0.017815
-0.006355
-0.022468
-0.006355
-0.006355
-0.054695
-0.038582
0.017815
-0.030525
-0.014412
0.001702
-0.038582
-0.022468
-0.006355
-0.014412
-0.038582
-0.014412
-0.022468
-0.038582
-0.030525
-0.038582
-0.022468
0.001702
0.017815
0.009758
0.106438
0.267571
0.332024
0.356194
0.372307
0.356194
0.364250
0.364250
0.340081
0.219231
0.211174
0.146721
0.106438
0.106438
0.074211
0.058098
0.058098
0.017815
0.041985
0.001702
-0.006355
-0.014412
-0.038582
-0.038582
-0.046638
-0.054695
-0.006355
-0.022468
-0.022468
-0.054695
-0.022468
-0.006355
-0.014412
-0.046638
-0.014412
-0.014412
-0.014412
-0.038582
0.001702
-0.014412
-0.014412
0.001702
0.033928
0.009758
0.001702
0.009758
-0.014412
0.009758
-0.014412
-0.006355
0.017815
0.017815
-0.006355
0.001702
0.009758
0.001702
0.001702
0.009758
0.009758
-0.014412
-0.006355
0.009758
0.009758
-0.022468
-0.159431
-0.272224
-0.376961
-0.368904
-0.376961
-0.376961
-0.393074
-0.368904
-0.328621
-0.272224
-0.215828
-0.159431
-0.167488
-0.127205
-0.103035
-0.078865
-0.062752
-0.022468
0.033928
-0.022468
0.001702
0.041985
-0.006355
0.017815
0.009758
0.033928
0.009758
0.033928
-0.006355
0.009758
-0.022468
0.001702
-0.014412
0.001702
0.001702
-0.006355
-0.014412
-0.046638
-0.046638
-0.006355
-0.030525
-0.022468
-0.022468
-0.030525
-0.054695
-0.054695
0.033928
0.130608
0.195061
0.211174
0.178948
0.162834
0.106438
0.082268
0.114495
0.098381
0.017815
0.041985
-0.006355
-0.014412
-0.006355
-0.022468
0.017815
-0.006355
0.122551
0.267571
0.340081
0.396477
0.380364
0.340081
0.380364
0.356194
0.291741
0.235344
0.187004
0.138664
0.122551
0.082268
0.082268
0.090325
0.033928
0.009758
-0.014412
0.001702
-0.030525
-0.022468
-0.030525
0.001702
-0.006355
-0.038582
-0.022468
-0.030525
-0.022468
0.001702
-0.046638
-0.022468
-0.038582
-0.046638
-0.014412
-0.030525
-0.014412
0.009758
-0.022468
-0.014412
-0.006355
0.009758
0.001702
-0.022468
-0.006355
0.025872
-0.022468
0.017815
0.001702
0.025872
0.001702
0.001702
0.009758
0.017815
-0.014412
-0.014412
0.001702
-0.014412
0.009758
0.009758
0.017815
-0.022468
-0.014412
-0.046638
-0.127205
-0.312507
-0.376961
-0.393074
-0.376961
-0.344734
-0.368904
-0.352791
-0.320564
-0.264168
-0.191658
-0.175544
-0.151375
-0.111091
-0.111091
-0.054695
-0.070808
-0.038582
-0.022468
-0.022468
-0.022468
0.009758
0.001702
-0.006355
-0.014412
0.009758
0.025872
-0.014412
-0.006355
0.017815
0.001702
-0.006355
0.001702
0.001702
-0.014412
-0.006355
-0.014412
-0.046638
-0.022468
-0.014412
-0.022468
-0.022468
0.009758
0.017815
-0.006355
-0.006355
0.025872
0.017815
-0.030525
-0.006355
-0.038582
-0.030525
-0.038582
-0.022468
-0.006355
-0.046638
-0.006355
0.017815
-0.022468
-0.038582
-0.038582
-0.038582
-0.022468
-0.006355
0.122551
0.267571
0.332024
0.372307
0.332024
0.340081
0.348137
0.340081
0.283684
0.203118
0.130608
0.098381
0.154778
0.259514
0.299797
0.307854
0.243401
0.203118
0.138664
0.114495
0.074211
0.050041
0.033928
0.001702
0.009758
0.001702
0.001702
0.009758
-0.022468
0.009758
-0.030525
-0.022468
0.009758
0.001702
0.009758
0.001702
0.001702
0.001702
-0.014412
0.017815
-0.022468
0.017815
0.025872
-0.014412
0.009758
0.009758
-0.014412
-0.006355
0.009758
-0.014412
0.009758
-0.006355
0.017815
0.017815
-0.014412
0.001702
0.009758
0.001702
0.001702
0.017815
-0.006355
-0.006355
-0.022468
-0.014412
-0.167488
-0.312507
-0.385017
-0.409187
-0.385017
-0.385017
-0.368904
-0.368904
-0.304451
-0.223884
-0.215828
-0.135261
-0.119148
-0.062752
-0.046638
-0.103035
-0.046638
-0.046638
0.001702
-0.014412
-0.006355
0.017815
0.017815
-0.022468
0.033928
-0.030525
-0.006355
-0.006355
0.009758
0.050041
0.025872
0.001702
-0.006355
0.017815
0.001702
0.001702
-0.006355
-0.030525
-0.038582
-0.014412
-0.014412
-0.038582
-0.006355
-0.022468
0.009758
0.009758
-0.006355
-0.014412
0.025872
-0.030525
-0.022468
-0.006355
-0.022468
-0.046638
-0.006355
-0.014412
-0.038582
0.001702
0.009758
-0.030525
-0.046638
0.009758
-0.054695
0.009758
0.162834
0.283684
0.364250
0.364250
0.348137
0.372307
0.364250
0.332024
0.307854
0.235344
0.170891
0.170891
0.114495
0.074211
0.082268
0.041985
0.017815
-0.006355
0.017815
-0.038582
-0.014412
0.009758
0.001702
-0.046638
-0.022468
-0.014412
-0.030525
-0.038582
-0.030525
-0.046638
0.001702
0.001702
-0.022468
-0.006355
-0.038582
-0.022468
-0.038582
0.001702
0.154778
0.211174
0.219231
0.235344
0.211174
0.162834
0.154778
0.074211
0.041985
0.025872
0.025872
0.025872
0.001702
0.009758
0.025872
-0.006355
0.009758
-0.006355
0.001702
-0.014412
-0.006355
-0.006355
0.009758
0.025872
0.009758
-0.038582
-0.183601
-0.312507
-0.352791
-0.376961
-0.393074
-0.393074
-0.352791
-0.352791
-0.288337
-0.248054
-0.207771
-0.167488
-0.086921
-0.094978
-0.086921
-0.062752
-0.022468
-0.030525
0.009758
-0.006355
0.017815
0.017815
0.001702
0.001702
0.017815
-0.014412
0.001702
0.009758
0.041985
0.009758
-0.022468
0.001702
-0.014412
-0.006355
0.001702
-0.006355
-0.006355
-0.014412
-0.030525
-0.022468
-0.014412
0.017815
-0.054695
-0.038582
-0.038582
-0.006355
-0.038582
0.001702
0.009758
0.001702
-0.038582
-0.022468
-0.022468
-0.030525
-0.030525
-0.030525
-0.022468
-0.022468
-0.062752
-0.006355
0.001702
-0.014412
-0.006355
0.009758
0.187004
0.291741
0.380364
0.356194
0.356194
0.372307
0.388420
0.315911
0.259514
0.235344
0.187004
0.146721
0.098381
0.098381
0.058098
0.074211
0.050041
0.025872
0.001702
-0.022468
-0.014412
-0.014412
-0.014412
-0.022468
0.001702
0.001702
-0.014412
0.009758
0.001702
-0.006355
-0.014412
-0.006355
-0.006355
-0.022468
-0.006355
0.017815
-0.006355
0.009758
0.017815
0.009758
-0.022468
0.009758
-0.006355
0.009758
0.009758
-0.006355
0.025872
0.025872
0.001702
0.025872
0.025872
0.009758
-0.006355
0.017815
0.001702
-0.006355
0.001702
0.017815
0.017815
0.017815
-0.022468
0.017815
-0.030525
-0.078865
-0.223884
-0.312507
-0.248054
-0.207771
-0.103035
-0.127205
-0.175544
-0.183601
-0.151375
-0.135261
-0.103035
-0.070808
-0.078865
-0.054695
-0.094978
-0.054695
0.001702
-0.022468
-0.030525
0.009758
0.050041
0.025872
-0.014412
0.001702
0.017815
0.017815
0.001702
0.025872
0.001702
-0.006355
-0.006355
-0.014412
-0.014412
-0.022468
0.001702
0.001702
-0.030525
0.025872
-0.030525
-0.030525
-0.006355
0.017815
0.017815
-0.014412
0.001702
0.001702
-0.006355
-0.030525
-0.006355
-0.038582
-0.030525
-0.030525
-0.014412
-0.038582
-0.006355
-0.014412
0.025872
-0.006355
0.001702
-0.022468
-0.022468
-0.022468
-0.030525
0.001702
0.170891
0.299797
0.340081
0.348137
0.356194
0.356194
0.364250
0.315911
0.291741
0.235344
0.187004
0.138664
0.090325
0.090325
0.098381
0.041985
0.033928
0.009758
0.017815
-0.006355
-0.006355
-0.022468
-0.014412
-0.038582
-0.038582
0.001702
-0.014412
0.001702
-0.022468
-0.030525
-0.014412
0.001702
0.009758
-0.022468
-0.062752
0.009758
-0.014412
-0.030525
-0.006355
0.017815
0.017815
-0.014412
-0.006355
0.041985
0.058098
0.025872
0.017815
-0.006355
0.009758
0.025872
0.033928
0.017815
-0.006355
0.017815
0.009758
0.025872
0.025872
-0.006355
-0.006355
0.025872
0.041985
0.033928
0.009758
-0.046638
-0.215828
-0.336677
-0.336677
-0.360847
-0.376961
-0.385017
-0.344734
-0.312507
-0.256111
-0.239998
-0.191658
-0.127205
-0.127205
-0.119148
-0.086921
-0.086921
-0.014412
-0.062752
0.001702
-0.006355
0.009758
0.017815
-0.014412
0.001702
0.009758
0.090325
0.203118
0.251457
0.195061
0.219231
0.187004
0.114495
0.066155
0.017815
0.050041
0.017815
0.009758
-0.014412
-0.006355
0.033928
-0.022468
-0.022468
-0.006355
-0.014412
-0.022468
-0.022468
-0.006355
-0.038582
0.001702
-0.030525
-0.030525
-0.054695
0.017815
-0.006355
-0.030525
-0.022468
0.001702
-0.038582
-0.014412
-0.006355
0.001702
0.001702
-0.038582
0.033928
0.219231
0.307854
0.340081
0.364250
0.340081
0.372307
0.388420
0.340081
0.283684
0.203118
0.187004
0.138664
0.146721
0.098381
0.050041
0.058098
0.082268
0.025872
0.025872
0.017815
0.001702
-0.022468
-0.038582
-0.014412
-0.006355
-0.006355
-0.014412
0.025872
-0.006355
-0.022468
0.058098
-0.006355
0.017815
0.017815
-0.006355
-0.014412
-0.014412
-0.014412
0.025872
0.001702
0.001702
0.001702
0.009758
0.017815
0.009758
0.050041
0.009758
0.009758
0.017815
0.025872
0.009758
0.001702
0.025872
0.001702
0.025872
0.009758
0.025872
0.033928
0.033928
-0.006355
0.017815
0.017815
0.017815
-0.062752
-0.239998
-0.320564
-0.393074
-0.352791
-0.360847
-0.376961
-0.352791
-0.320564
-0.264168
-0.248054
-0.151375
-0.143318
-0.078865
-0.086921
-0.119148
-0.054695
-0.030525
-0.022468
-0.006355
-0.006355
-0.006355
-0.014412
0.017815
0.009758
0.033928
0.017815
0.009758
-0.006355
-0.014412
0.001702
-0.022468
0.001702
-0.006355
-0.006355
0.001702
-0.014412
0.009758
-0.038582
-0.030525
-0.030525
-0.022468
0.025872
-0.030525
-0.030525
-0.046638
-0.030525
-0.030525
-0.006355
-0.038582
-0.038582
-0.014412
-0.054695
-0.054695
-0.046638
0.001702
0.106438
0.195061
0.219231
0.211174
0.154778
0.138664
0.090325
0.130608
0.130608
0.299797
0.356194
0.396477
0.372307
0.380364
0.380364
0.380364
0.323967
0.267571
0.211174
0.195061
0.154778
0.066155
0.098381
0.058098
0.033928
0.017815
0.033928
-0.014412
-0.022468
-0.022468
0.001702
0.001702
0.009758
-0.014412
-0.014412
-0.038582
-0.030525
-0.022468
0.001702
-0.030525
0.009758
-0.014412
-0.014412
0.017815
-0.006355
0.001702
0.001702
0.017815
-0.014412
0.001702
0.009758
0.009758
-0.006355
0.017815
0.001702
0.041985
0.033928
0.009758
-0.014412
0.033928
0.033928
0.009758
0.033928
0.050041
0.009758
0.033928
0.017815
0.041985
0.017815
0.009758
-0.014412
0.017815
-0.062752
-0.272224
-0.328621
-0.360847
-0.368904
-0.385017
-0.393074
-0.344734
-0.352791
-0.256111
-0.215828
-0.199714
-0.151375
-0.119148
-0.086921
-0.062752
-0.070808
-0.046638
-0.014412
0.009758
0.017815
-0.014412
0.041985
0.001702
0.017815
0.050041
0.033928
0.025872
0.017815
0.001702
-0.006355
-0.006355
-0.014412
0.025872
0.001702
0.009758
0.009758
-0.022468
0.041985
0.009758
-0.038582
-0.006355
-0.006355
0.025872
0.009758
-0.030525
-0.030525
-0.022468
-0.014412
-0.014412
-0.022468
-0.022468
-0.030525
0.033928
-0.014412
-0.006355
0.025872
0.009758
0.009758
0.001702
0.001702
-0.022468
-0.006355
0.001702
0.082268
0.243401
0.372307
0.380364
0.332024
0.380364
0.388420
0.340081
0.315911
0.251457
0.195061
0.138664
0.090325
0.082268
0.074211
0.041985
0.058098
0.138664
0.211174
0.227288
0.203118
0.195061
0.178948
0.130608
0.106438
0.074211
0.058098
0.033928
0.025872
-0.014412
0.017815
0.009758
0.001702
0.001702
0.050041
0.001702
-0.022468
0.050041
-0.006355
0.025872
-0.006355
0.017815
-0.014412
0.017815
-0.006355
0.001702
0.017815
0.001702
0.017815
0.009758
0.017815
-0.006355
0.050041
0.025872
0.025872
0.001702
0.009758
0.009758
0.033928
0.001702
0.009758
0.033928
0.041985
-0.006355
-0.094978
-0.256111
-0.368904
-0.385017
-0.368904
-0.336677
-0.352791
-0.360847
-0.320564
-0.288337
-0.207771
-0.151375
-0.127205
-0.103035
-0.103035
-0.070808
-0.070808
-0.030525
-0.014412
-0.014412
-0.006355
0.033928
0.033928
0.025872
-0.006355
-0.014412
0.041985
0.009758
0.025872
0.017815
0.017815
0.009758
0.001702
0.009758
-0.022468
0.009758
0.009758
0.025872
-0.006355
0.033928
-0.030525
-0.014412
-0.006355
0.017815
0.009758
-0.022468
-0.014412
-0.014412
0.001702
0.001702
-0.046638
-0.022468
-0.030525
-0.006355
-0.030525
-0.014412
-0.022468
-0.014412
0.025872
-0.022468
-0.022468
-0.014412
-0.014412
0.009758
0.074211
0.291741
0.348137
0.388420
0.388420
0.340081
0.356194
0.332024
0.364250
0.283684
0.235344
0.187004
0.122551
0.106438
0.058098
0.082268
0.050041
0.017815
0.017815
-0.014412
0.001702
-0.022468
0.017815
-0.014412
-0.030525
0.009758
0.001702
-0.054695
0.017815
-0.030525
-0.030525
0.001702
-0.038582
0.009758
-0.030525
-0.006355
-0.038582
-0.014412
0.009758
-0.022468
-0.030525
-0.006355
0.001702
0.017815
-0.030525
0.082268
0.178948
0.251457
0.227288
0.227288
0.203118
0.178948
0.170891
0.082268
0.041985
0.082268
0.041985
0.017815
0.025872
0.033928
0.017815
0.025872
0.050041
0.001702
-0.111091
-0.272224
-0.344734
-0.352791
-0.368904
