-1.780600
-1.990073
-1.079673
-0.612387
-1.119956
-1.136069
-0.829917
-0.797690
-0.709067
-0.588217
-0.539878
-0.523764
-0.499594
-0.402915
-0.419028
-0.362632
-0.257895
-0.241782
-0.241782
-0.225669
-0.201499
-0.145102
-0.128989
-0.145102
-0.128989
-0.104819
-0.064536
-0.032309
-0.040366
-0.016196
-0.000083
-0.024253
-0.000083
-0.016196
-0.064536
-0.056479
-0.064536
-0.072592
-0.088706
-0.072592
-0.088706
-0.128989
-0.137046
-0.104819
-0.120932
-0.137046
-0.161215
-0.137046
-0.137046
-0.088706
-0.177329
-0.120932
-0.128989
-0.169272
-0.137046
-0.104819
-0.096762
-0.088706
0.032144
0.080484
0.177163
0.185220
0.112710
0.209390
0.426919
0.612222
0.676675
0.660562
0.644449
0.571939
0.579995
0.571939
0.523599
0.483316
0.491372
0.483316
0.459146
0.426919
0.362466
0.306070
0.273843
0.233560
0.233560
0.193277
0.185220
0.152993
0.120767
0.136880
0.096597
0.112710
0.056314
0.032144
0.032144
0.032144
-0.000083
-0.008139
-0.024253
-0.016196
-0.024253
0.007974
-0.008139
-0.016196
-0.016196
0.024087
-0.024253
-0.000083
-0.008139
-0.040366
0.007974
0.024087
-0.008139
0.007974
-0.008139
-0.000083
0.007974
0.024087
0.024087
-0.016196
0.032144
0.032144
-0.008139
0.040201
0.064370
0.016031
0.016031
0.016031
-0.000083
-0.000083
-0.016196
-0.274008
-0.483481
-0.555991
-0.555991
-0.572104
-0.564048
-0.499594
-0.531821
-0.483481
-0.451255
-0.427085
-0.435141
-0.402915
-0.346518
-0.274008
-0.225669
-0.201499
-0.153159
-0.145102
-0.104819
-0.064536
-0.104819
-0.056479
-0.032309
-0.024253
-0.000083
0.007974
0.007974
0.016031
0.007974
0.016031
0.016031
-0.000083
0.007974
-0.000083
-0.032309
-0.008139
-0.016196
-0.040366
-0.040366
-0.048423
-0.048423
-0.056479
-0.048423
-0.056479
-0.088706
-0.080649
-0.064536
-0.072592
-0.064536
-0.056479
-0.120932
-0.104819
-0.072592
-0.064536
-0.064536
-0.040366
-0.056479
-0.056479
-0.080649
-0.032309
-0.056479
-0.048423
-0.048423
-0.056479
-0.048423
0.112710
0.249673
0.362466
0.418863
0.443033
0.443033
0.402749
0.386636
0.386636
0.402749
0.354410
0.281900
0.209390
0.185220
0.152993
0.104654
0.096597
0.040201
0.024087
-0.016196
0.056314
0.144937
0.249673
0.225503
0.201333
0.185220
0.161050
0.096597
0.056314
0.056314
0.007974
-0.000083
-0.000083
0.032144
0.016031
-0.008139
-0.000083
-0.008139
-0.048423
-0.016196
-0.040366
-0.000083
-0.016196
-0.008139
-0.008139
-0.000083
0.016031
-0.016196
-0.008139
0.056314
-0.000083
0.024087
0.016031
0.007974
0.016031
0.007974
0.007974
-0.016196
0.024087
0.024087
0.016031
-0.016196
0.016031
0.024087
-0.040366
-0.201499
-0.322348
-0.419028
-0.451255
-0.451255
-0.419028
-0.435141
-0.419028
-0.394858
-0.370688
-0.322348
-0.217612
-0.185385
-0.185385
-0.120932
-0.128989
-0.096762
-0.080649
-0.080649
0.016031
-0.016196
-0.008139
-0.000083
0.016031
-0.000083
0.024087
0.016031
0.016031
0.048257
0.007974
0.016031
-0.024253
-0.024253
-0.024253
-0.008139
0.024087
-0.000083
-0.056479
-0.000083
-0.000083
-0.016196
-0.024253
-0.048423
-0.024253
-0.056479
-0.032309
-0.024253
-0.080649
-0.072592
-0.056479
-0.032309
-0.048423
-0.024253
-0.064536
-0.072592
-0.040366
-0.040366
-0.032309
-0.048423
-0.032309
-0.040366
-0.056479
-0.048423
0.016031
0.136880
0.281900
0.386636
0.451089
0.459146
0.434976
0.378579
0.402749
0.362466
0.354410
0.257730
0.249673
0.217447
0.169107
0.096597
0.080484
0.064370
0.088540
0.072427
0.040201
-0.000083
-0.024253
-0.032309
-0.032309
-0.032309
-0.016196
-0.056479
-0.016196
-0.048423
-0.024253
-0.032309
0.016031
0.016031
-0.024253
-0.016196
-0.016196
0.007974
0.024087
0.007974
-0.000083
-0.008139
-0.016196
-0.016196
-0.048423
-0.016196
0.144937
0.257730
0.249673
0.217447
0.217447
0.201333
0.209390
0.120767
0.144937
0.096597
0.032144
0.072427
-0.000083
0.007974
0.024087
0.032144
0.024087
0.007974
-0.016196
-0.128989
-0.306235
-0.419028
-0.435141
-0.459311
-0.427085
-0.370688
-0.410971
-0.410971
-0.370688
-0.265952
-0.225669
-0.201499
-0.137046
-0.120932
-0.104819
-0.104819
-0.120932
-0.040366
-0.040366
-0.008139
0.007974
0.032144
-0.000083
0.024087
-0.016196
0.016031
0.040201
0.040201
0.024087
-0.008139
0.016031
-0.016196
-0.024253
0.024087
-0.008139
-0.040366
0.007974
-0.008139
-0.016196
-0.016196
-0.064536
-0.000083
-0.072592
-0.048423
-0.072592
-0.056479
-0.056479
-0.040366
-0.040366
-0.072592
-0.056479
-0.000083
-0.032309
-0.040366
-0.056479
-0.064536
-0.032309
-0.008139
0.016031
-0.016196
-0.016196
-0.024253
-0.008139
0.064370
0.241617
0.386636
0.418863
0.426919
0.362466
0.346353
0.386636
0.346353
0.338296
0.265786
0.233560
0.201333
0.177163
0.104654
0.088540
0.104654
0.064370
0.007974
0.007974
-0.008139
-0.024253
-0.024253
-0.032309
-0.008139
-0.000083
-0.000083
-0.008139
-0.040366
-0.016196
-0.016196
0.024087
0.007974
-0.000083
0.007974
0.024087
-0.016196
-0.032309
-0.024253
-0.032309
-0.008139
-0.000083
-0.008139
-0.024253
0.007974
-0.024253
0.056314
-0.000083
0.007974
0.007974
0.007974
0.016031
-0.008139
0.016031
-0.016196
-0.008139
0.016031
-0.008139
-0.000083
-0.008139
-0.008139
-0.000083
0.024087
0.024087
-0.128989
-0.298178
-0.354575
-0.451255
-0.435141
-0.443198
-0.451255
-0.410971
-0.419028
-0.209555
-0.032309
-0.000083
0.096597
0.096597
0.080484
0.080484
0.040201
0.007974
-0.000083
-0.008139
0.016031
0.016031
0.024087
0.040201
0.024087
-0.000083
-0.008139
0.024087
0.016031
0.032144
-0.000083
-0.016196
0.007974
0.032144
-0.000083
0.016031
-0.008139
-0.040366
-0.032309
-0.040366
-0.008139
-0.024253
-0.016196
-0.048423
-0.064536
-0.032309
-0.048423
-0.040366
-0.016196
-0.016196
-0.016196
-0.000083
-0.000083
-0.040366
-0.024253
-0.024253
-0.040366
-0.040366
-0.024253
-0.056479
-0.024253
-0.024253
-0.016196
-0.000083
0.064370
0.249673
0.354410
0.394693
0.410806
0.410806
0.386636
0.394693
0.346353
0.314126
0.257730
0.209390
0.136880
0.112710
0.112710
0.088540
0.048257
0.064370
0.072427
0.007974
0.016031
0.007974
-0.008139
-0.016196
-0.024253
-0.032309
-0.016196
-0.000083
-0.040366
-0.032309
-0.008139
-0.000083
-0.016196
-0.024253
-0.000083
-0.008139
0.007974
0.007974
-0.016196
0.007974
-0.016196
-0.016196
-0.016196
-0.000083
0.032144
-0.000083
0.007974
-0.008139
-0.016196
0.007974
-0.000083
0.024087
-0.008139
0.016031
-0.008139
-0.008139
0.016031
0.007974
0.007974
-0.008139
-0.016196
-0.024253
0.007974
0.024087
-0.104819
-0.241782
-0.419028
-0.410971
-0.402915
-0.370688
-0.378745
-0.378745
-0.346518
-0.290122
-0.225669
-0.201499
-0.153159
-0.112876
-0.112876
-0.072592
-0.064536
-0.048423
-0.032309
-0.064536
-0.024253
-0.008139
0.007974
0.016031
0.007974
0.007974
-0.024253
0.007974
0.007974
-0.000083
0.024087
-0.008139
0.128824
0.201333
0.217447
0.241617
0.177163
0.177163
0.136880
0.120767
0.088540
0.040201
0.016031
-0.000083
-0.008139
-0.016196
-0.048423
-0.024253
-0.016196
-0.024253
-0.040366
-0.008139
-0.048423
-0.032309
-0.032309
-0.016196
-0.048423
-0.032309
-0.032309
-0.040366
-0.024253
-0.048423
-0.032309
-0.024253
0.096597
0.265786
0.370523
0.386636
0.346353
0.370523
0.378579
0.410806
0.338296
0.314126
0.241617
0.177163
0.144937
0.112710
0.152993
0.104654
0.048257
0.072427
0.040201
-0.008139
-0.024253
-0.024253
-0.008139
-0.024253
-0.040366
-0.024253
0.007974
-0.032309
-0.008139
-0.032309
0.016031
-0.032309
-0.032309
-0.048423
-0.032309
-0.000083
-0.032309
-0.016196
-0.016196
-0.040366
-0.008139
-0.016196
-0.000083
-0.008139
0.032144
0.007974
0.007974
0.016031
-0.000083
-0.008139
0.007974
0.016031
0.007974
-0.008139
0.016031
-0.000083
-0.000083
-0.008139
0.032144
0.007974
0.016031
-0.008139
0.016031
0.007974
-0.120932
-0.298178
-0.378745
-0.419028
-0.394858
-0.362632
-0.410971
-0.386801
-0.386801
-0.306235
-0.241782
-0.177329
-0.153159
-0.112876
-0.088706
-0.072592
-0.096762
-0.064536
-0.040366
-0.008139
0.016031
0.016031
0.024087
0.007974
0.024087
0.016031
0.032144
0.016031
-0.000083
-0.008139
-0.008139
0.007974
0.007974
0.016031
-0.016196
-0.000083
-0.008139
-0.040366
-0.024253
-0.048423
-0.024253
0.016031
-0.008139
-0.024253
-0.032309
-0.040366
-0.032309
-0.032309
-0.048423
-0.008139
-0.040366
-0.024253
-0.032309
-0.016196
-0.016196
-0.056479
-0.056479
-0.056479
-0.048423
-0.040366
-0.048423
-0.000083
0.128824
0.209390
0.370523
0.531656
0.579995
0.644449
0.571939
0.467202
0.467202
0.443033
0.467202
0.370523
0.273843
0.233560
0.144937
0.136880
0.112710
0.080484
0.064370
0.032144
-0.008139
0.024087
-0.032309
0.040201
-0.000083
-0.032309
-0.024253
-0.032309
-0.040366
-0.024253
-0.008139
-0.016196
-0.008139
-0.016196
-0.000083
-0.032309
-0.032309
-0.008139
-0.000083
-0.016196
0.007974
0.007974
-0.000083
0.007974
-0.024253
0.007974
-0.016196
0.007974
-0.016196
-0.000083
0.016031
0.016031
-0.000083
0.016031
-0.008139
-0.000083
-0.016196
-0.016196
0.032144
0.007974
0.016031
0.016031
0.024087
0.007974
0.016031
0.016031
-0.137046
-0.314292
-0.378745
-0.443198
-0.362632
-0.370688
-0.386801
-0.354575
-0.338462
-0.306235
-0.233725
-0.209555
-0.169272
-0.112876
-0.080649
-0.080649
-0.056479
-0.024253
-0.040366
-0.008139
-0.008139
0.016031
-0.000083
-0.008139
0.024087
0.032144
0.007974
0.016031
0.016031
-0.008139
-0.016196
-0.000083
-0.016196
0.024087
0.016031
0.040201
-0.000083
-0.016196
-0.016196
-0.016196
-0.040366
-0.024253
-0.024253
-0.040366
-0.008139
-0.016196
-0.008139
0.007974
-0.032309
-0.024253
-0.032309
-0.016196
-0.056479
-0.016196
-0.016196
-0.000083
0.007974
-0.064536
-0.024253
-0.032309
-0.008139
-0.016196
-0.056479
-0.000083
0.136880
0.289956
0.394693
0.386636
0.434976
0.370523
0.370523
0.370523
0.338296
0.281900
0.217447
0.177163
0.144937
0.112710
0.080484
0.064370
0.088540
0.088540
0.032144
-0.024253
0.007974
-0.016196
0.007974
0.120767
0.193277
0.185220
0.201333
0.177163
0.169107
0.080484
0.048257
0.064370
0.040201
0.056314
0.024087
-0.000083
0.040201
0.048257
-0.000083
-0.008139
-0.032309
0.024087
-0.000083
-0.008139
0.007974
-0.016196
0.016031
0.032144
0.007974
0.032144
0.016031
-0.008139
-0.016196
0.016031
-0.008139
-0.000083
-0.000083
-0.000083
0.016031
0.040201
-0.008139
0.016031
0.032144
-0.008139
-0.137046
-0.362632
-0.402915
-0.427085
-0.410971
-0.386801
-0.394858
-0.402915
-0.370688
-0.306235
-0.241782
-0.177329
-0.120932
-0.120932
-0.120932
-0.088706
-0.056479
-0.096762
-0.032309
-0.008139
-0.016196
-0.016196
-0.008139
0.024087
-0.024253
0.016031
0.016031
0.007974
-0.000083
0.016031
0.016031
0.007974
-0.016196
-0.008139
-0.024253
-0.000083
-0.008139
-0.000083
-0.032309
-0.024253
-0.032309
-0.064536
-0.016196
-0.032309
-0.024253
-0.008139
-0.000083
-0.016196
-0.016196
-0.056479
-0.040366
-0.040366
0.007974
-0.040366
-0.040366
-0.016196
-0.024253
-0.008139
-0.032309
-0.024253
-0.016196
0.016031
-0.024253
0.040201
0.144937
0.306070
0.402749
0.394693
0.402749
0.386636
0.362466
0.370523
0.338296
0.322183
0.233560
0.136880
0.152993
0.088540
0.112710
0.056314
0.048257
0.016031
0.016031
-0.016196
-0.016196
-0.024253
-0.008139
-0.048423
-0.016196
-0.024253
-0.016196
0.007974
-0.056479
-0.032309
-0.024253
-0.016196
0.016031
-0.032309
-0.024253
-0.032309
-0.016196
-0.016196
-0.040366
0.007974
-0.000083
0.024087
-0.016196
-0.008139
-0.024253
-0.024253
-0.008139
-0.000083
0.007974
-0.000083
0.007974
0.088540
0.249673
0.257730
0.241617
0.193277
0.217447
0.193277
0.177163
0.144937
0.080484
0.072427
0.072427
-0.008139
-0.185385
-0.314292
-0.419028
-0.419028
-0.402915
-0.410971
-0.370688
-0.370688
-0.354575
-0.265952
-0.225669
-0.169272
-0.153159
-0.120932
-0.120932
-0.080649
-0.072592
-0.024253
-0.032309
-0.032309
-0.024253
-0.008139
-0.008139
0.007974
0.007974
-0.000083
0.024087
0.007974
-0.016196
-0.000083
0.016031
-0.008139
0.007974
0.032144
-0.008139
0.016031
-0.032309
-0.048423
-0.024253
-0.016196
-0.008139
-0.008139
-0.008139
-0.032309
-0.032309
-0.032309
-0.048423
-0.000083
-0.048423
-0.040366
-0.016196
-0.032309
-0.056479
-0.040366
-0.000083
-0.016196
-0.024253
-0.000083
-0.040366
-0.032309
0.007974
-0.024253
-0.008139
-0.008139
0.209390
0.346353
0.378579
0.378579
0.386636
0.378579
0.394693
0.370523
0.322183
0.265786
0.217447
0.185220
0.120767
0.144937
0.088540
0.072427
0.072427
0.032144
0.048257
-0.008139
-0.016196
-0.024253
0.007974
0.032144
-0.016196
0.048257
-0.040366
0.016031
-0.000083
-0.040366
-0.048423
-0.008139
-0.008139
-0.016196
-0.024253
-0.032309
-0.016196
-0.016196
0.024087
-0.000083
-0.008139
0.032144
-0.008139
0.007974
0.016031
-0.008139
0.007974
-0.000083
-0.000083
0.024087
0.040201
0.024087
-0.000083
-0.000083
-0.000083
0.016031
-0.016196
0.016031
0.007974
0.016031
-0.024253
-0.008139
0.016031
-0.064536
-0.249839
-0.362632
-0.443198
-0.419028
-0.419028
-0.443198
-0.427085
-0.402915
-0.346518
-0.322348
-0.137046
0.040201
0.064370
0.104654
0.080484
0.072427
0.088540
0.096597
0.080484
0.056314
0.056314
0.032144
-0.000083
0.024087
0.016031
0.024087
0.007974
0.016031
0.016031
0.007974
-0.016196
-0.016196
-0.008139
-0.032309
0.024087
-0.000083
0.007974
-0.032309
-0.024253
-0.008139
-0.032309
-0.040366
-0.016196
-0.032309
-0.016196
-0.016196
-0.056479
-0.024253
-0.032309
-0.000083
-0.008139
-0.024253
-0.008139
-0.024253
-0.016196
-0.032309
-0.040366
-0.000083
-0.008139
-0.032309
-0.008139
0.016031
-0.016196
0.056314
0.209390
0.394693
0.394693
0.378579
0.370523
0.394693
0.402749
0.370523
0.314126
0.273843
0.209390
0.161050
0.096597
0.080484
0.088540
0.096597
0.096597
0.032144
0.016031
-0.008139
0.007974
-0.040366
0.007974
-0.024253
-0.032309
-0.024253
-0.016196
0.016031
-0.008139
-0.024253
-0.024253
-0.032309
0.007974
0.007974
-0.024253
-0.000083
-0.008139
-0.024253
-0.008139
-0.016196
-0.016196
-0.000083
-0.008139
0.016031
-0.008139
0.016031
-0.000083
-0.000083
0.007974
-0.000083
0.007974
-0.000083
0.016031
0.024087
0.024087
0.056314
-0.000083
0.007974
0.024087
0.016031
0.032144
-0.000083
-0.008139
-0.032309
-0.241782
-0.394858
-0.394858
-0.427085
-0.378745
-0.378745
-0.394858
-0.370688
-0.362632
-0.290122
-0.217612
-0.177329
-0.120932
-0.128989
-0.088706
-0.072592
-0.040366
-0.064536
-0.032309
-0.008139
-0.000083
0.032144
0.007974
0.007974
0.007974
-0.008139
-0.008139
-0.008139
-0.008139
0.007974
0.007974
-0.008139
0.007974
0.007974
-0.016196
-0.000083
-0.032309
-0.024253
-0.024253
-0.008139
0.112710
0.249673
0.193277
0.217447
0.193277
0.185220
0.161050
0.072427
0.048257
0.040201
0.024087
0.048257
-0.024253
-0.032309
-0.024253
-0.032309
-0.032309
-0.032309
-0.024253
-0.032309
-0.056479
-0.024253
-0.024253
0.024087
0.225503
0.330240
0.402749
0.418863
0.386636
0.386636
0.378579
0.378579
0.306070
0.249673
0.193277
0.136880
0.161050
0.104654
0.064370
0.072427
0.072427
0.032144
0.048257
0.007974
-0.032309
-0.016196
-0.024253
-0.032309
-0.016196
-0.000083
0.040201
-0.008139
-0.008139
-0.024253
-0.000083
-0.048423
-0.016196
-0.008139
-0.032309
-0.024253
-0.000083
-0.032309
0.016031
0.016031
0.024087
0.024087
0.024087
0.032144
-0.000083
0.007974
-0.008139
-0.000083
0.016031
0.016031
0.007974
-0.008139
-0.016196
0.024087
0.016031
0.016031
-0.008139
0.007974
0.007974
0.024087
0.048257
0.016031
0.007974
-0.056479
-0.241782
-0.378745
-0.410971
-0.419028
-0.394858
-0.410971
-0.378745
-0.346518
-0.354575
-0.233725
-0.233725
-0.153159
-0.120932
-0.120932
-0.104819
-0.072592
-0.056479
-0.032309
-0.032309
-0.016196
0.007974
0.032144
-0.000083
0.024087
0.024087
0.024087
0.056314
-0.008139
0.016031
0.007974
-0.032309
-0.008139
-0.016196
0.007974
-0.000083
0.007974
0.007974
0.007974
0.024087
-0.016196
0.032144
-0.032309
-0.040366
-0.000083
-0.048423
-0.000083
-0.024253
-0.056479
-0.032309
-0.040366
-0.008139
-0.024253
-0.040366
-0.048423
-0.016196
-0.032309
-0.024253
-0.040366
-0.032309
-0.064536
-0.048423
-0.016196
-0.040366
0.032144
0.233560
0.443033
0.652505
0.636392
0.652505
0.588052
0.588052
0.531656
0.426919
0.298013
0.233560
0.201333
0.161050
0.112710
0.120767
0.056314
0.056314
0.072427
-0.032309
-0.024253
-0.024253
-0.008139
-0.008139
-0.024253
-0.016196
-0.024253
-0.048423
-0.040366
-0.024253
-0.016196
-0.016196
-0.032309
-0.000083
-0.016196
0.007974
0.024087
-0.024253
-0.008139
0.024087
-0.008139
0.032144
-0.000083
-0.000083
-0.000083
0.007974
-0.008139
-0.000083
0.024087
-0.000083
0.040201
-0.000083
0.007974
0.024087
-0.008139
-0.008139
0.016031
0.016031
-0.008139
0.024087
-0.016196
0.016031
0.016031
-0.008139
-0.064536
-0.257895
-0.394858
-0.419028
-0.402915
-0.362632
-0.354575
-0.427085
-0.354575
-0.338462
-0.257895
-0.209555
-0.161215
-0.137046
-0.096762
-0.120932
-0.064536
-0.064536
-0.016196
-0.008139
-0.032309
0.040201
0.040201
0.024087
0.024087
0.007974
0.024087
0.016031
0.016031
-0.016196
0.007974
0.024087
0.016031
0.016031
-0.024253
-0.000083
-0.008139
-0.024253
-0.008139
-0.016196
-0.032309
-0.016196
0.016031
-0.032309
-0.032309
-0.032309
-0.024253
-0.016196
0.007974
-0.032309
-0.008139
-0.016196
-0.024253
-0.016196
-0.056479
-0.016196
0.024087
-0.008139
-0.016196
-0.056479
-0.032309
-0.056479
0.016031
-0.016196
0.080484
0.249673
0.370523
0.410806
0.354410
0.410806
0.354410
0.378579
0.386636
0.314126
0.289956
0.193277
0.136880
0.128824
0.120767
0.096597
0.048257
0.040201
0.064370
0.024087
-0.000083
-0.032309
-0.048423
-0.040366
-0.056479
-0.048423
-0.048423
-0.048423
-0.048423
-0.064536
0.032144
0.136880
0.193277
0.209390
0.169107
0.193277
0.177163
0.136880
0.104654
0.040201
0.040201
0.007974
0.016031
0.024087
0.007974
-0.000083
0.007974
0.007974
0.016031
-0.008139
0.016031
0.007974
0.007974
0.016031
-0.024253
-0.000083
0.007974
0.016031
-0.008139
0.016031
0.024087
-0.008139
0.007974
-0.000083
-0.088706
-0.282065
-0.394858
-0.419028
-0.435141
-0.410971
-0.402915
-0.427085
-0.394858
-0.338462
-0.225669
-0.209555
-0.161215
-0.169272
-0.137046
-0.120932
-0.064536
-0.064536
-0.032309
-0.000083
-0.016196
-0.016196
-0.024253
-0.008139
-0.000083
0.007974
-0.008139
0.016031
0.040201
-0.008139
0.016031
0.007974
0.007974
0.032144
-0.024253
-0.024253
-0.024253
-0.000083
0.024087
-0.040366
-0.008139
-0.000083
-0.008139
-0.000083
-0.008139
-0.024253
0.016031
0.016031
-0.008139
-0.040366
-0.016196
0.007974
-0.032309
-0.024253
-0.024253
-0.008139
-0.032309
0.007974
-0.024253
-0.032309
-0.048423
-0.000083
-0.008139
-0.008139
0.120767
0.273843
0.410806
0.426919
0.386636
0.394693
0.362466
0.418863
0.354410
0.338296
0.241617
0.201333
0.152993
0.136880
0.120767
0.064370
0.064370
0.056314
0.007974
0.024087
-0.040366
-0.016196
-0.000083
-0.008139
-0.008139
-0.016196
-0.032309
-0.024253
-0.000083
-0.000083
-0.040366
0.007974
-0.032309
-0.024253
-0.000083
-0.000083
-0.000083
-0.016196
0.007974
-0.008139
0.040201
-0.024253
-0.016196
-0.040366
0.007974
0.024087
-0.008139
0.024087
-0.016196
-0.008139
-0.000083
-0.032309
0.007974
0.064370
0.185220
0.233560
0.233560
0.209390
0.193277
0.161050
0.128824
0.064370
0.056314
0.024087
-0.096762
-0.290122
-0.386801
-0.427085
-0.419028
-0.394858
-0.402915
-0.394858
-0.346518
-0.346518
-0.265952
-0.193442
-0.169272
-0.137046
-0.104819
-0.088706
-0.072592
-0.040366
-0.056479
-0.024253
-0.032309
-0.000083
-0.016196
0.007974
-0.024253
0.040201
0.040201
-0.008139
0.016031
-0.016196
0.007974
0.024087
-0.024253
-0.000083
-0.008139
-0.048423
-0.024253
-0.040366
-0.016196
-0.016196
-0.048423
-0.016196
-0.032309
-0.024253
-0.024253
-0.016196
-0.024253
-0.048423
-0.040366
-0.016196
-0.008139
-0.048423
-0.008139
-0.032309
-0.008139
-0.024253
0.016031
-0.008139
-0.000083
-0.048423
-0.024253
-0.000083
-0.008139
-0.016196
0.136880
0.306070
0.370523
0.370523
0.370523
0.370523
0.362466
0.354410
0.354410
0.298013
0.225503
0.177163
0.177163
0.096597
0.088540
0.064370
0.080484
0.032144
-0.000083
0.024087
-0.016196
-0.016196
-0.040366
-0.016196
-0.024253
-0.016196
-0.032309
-0.032309
-0.040366
-0.016196
-0.024253
-0.024253
-0.016196
-0.008139
-0.024253
-0.024253
-0.008139
0.024087
-0.000083
-0.000083
-0.000083
0.016031
-0.000083
0.007974
0.016031
0.024087
-0.000083
0.016031
-0.000083
-0.016196
0.007974
0.024087
0.007974
-0.008139
0.007974
0.016031
0.024087
0.024087
-0.000083
-0.024253
0.032144
0.032144
0.016031
-0.040366
-0.153159
-0.346518
-0.402915
-0.435141
-0.410971
-0.394858
-0.402915
-0.419028
-0.362632
-0.322348
-0.265952
-0.169272
-0.161215
-0.169272
-0.104819
-0.088706
-0.080649
-0.088706
-0.088706
0.096597
0.233560
0.201333
0.249673
0.249673
0.193277
0.209390
0.112710
0.104654
0.056314
0.072427
0.040201
0.007974
0.007974
0.016031
0.007974
-0.016196
-0.000083
0.007974
-0.016196
0.007974
-0.024253
0.007974
-0.024253
-0.024253
-0.008139
-0.008139
0.016031
-0.008139
-0.024253
-0.024253
-0.048423
-0.016196
-0.016196
-0.040366
-0.032309
-0.024253
-0.000083
-0.024253
-0.024253
-0.056479
-0.000083
-0.016196
-0.032309
0.007974
0.120767
0.322183
0.378579
0.394693
0.402749
0.386636
0.394693
0.370523
0.338296
0.249673
0.233560
0.193277
0.152993
0.120767
0.096597
0.088540
0.080484
0.056314
0.032144
0.032144
0.007974
-0.016196
-0.032309
-0.048423
-0.016196
-0.024253
-0.056479
-0.016196
-0.024253
-0.000083
-0.048423
-0.032309
-0.016196
-0.016196
0.007974
-0.000083
0.007974
-0.016196
-0.008139
-0.016196
-0.032309
0.007974
0.040201
-0.016196
0.007974
0.024087
-0.000083
0.016031
0.007974
0.016031
-0.008139
0.024087
-0.000083
-0.016196
0.048257
-0.000083
0.016031
0.007974
-0.000083
0.024087
-0.000083
0.024087
0.024087
-0.008139
-0.201499
-0.314292
-0.386801
-0.435141
-0.419028
-0.394858
-0.394858
-0.370688
-0.330405
-0.306235
-0.233725
-0.193442
-0.161215
-0.145102
-0.128989
-0.088706
-0.080649
0.007974
0.007974
-0.016196
0.024087
-0.016196
-0.016196
-0.008139
0.024087
0.032144
0.040201
0.040201
0.016031
0.024087
0.048257
-0.016196
-0.008139
-0.008139
-0.000083
-0.048423
-0.008139
-0.016196
-0.008139
-0.032309
-0.056479
-0.040366
-0.056479
-0.024253
0.032144
0.144937
0.209390
0.201333
0.185220
0.161050
0.144937
0.104654
0.072427
0.024087
0.040201
0.016031
-0.000083
-0.000083
0.016031
-0.000083
-0.024253
-0.056479
-0.024253
-0.008139
0.185220
0.314126
0.394693
0.418863
0.362466
0.378579
0.370523
0.386636
0.330240
0.281900
0.209390
0.161050
0.144937
0.104654
0.072427
0.080484
0.064370
0.048257
-0.008139
-0.016196
0.007974
-0.008139
-0.008139
-0.032309
-0.016196
-0.000083
-0.016196
0.007974
0.032144
-0.024253
0.007974
-0.000083
-0.008139
-0.024253
-0.008139
-0.008139
-0.008139
-0.016196
0.032144
0.024087
-0.000083
-0.000083
0.024087
0.007974
0.040201
0.024087
0.007974
-0.024253
0.024087
-0.008139
-0.000083
0.007974
0.007974
0.056314
-0.008139
0.016031
0.007974
0.007974
-0.000083
0.016031
0.016031
-0.008139
0.007974
-0.048423
-0.225669
-0.362632
-0.402915
-0.410971
-0.394858
-0.394858
-0.378745
-0.386801
-0.354575
-0.298178
-0.225669
-0.177329
-0.120932
-0.128989
-0.104819
-0.080649
-0.088706
-0.048423
-0.040366
-0.040366
-0.016196
-0.008139
0.016031
-0.008139
-0.000083
0.007974
-0.008139
-0.000083
0.016031
0.032144
-0.024253
-0.000083
0.024087
0.032144
0.007974
0.007974
0.007974
-0.024253
-0.000083
-0.008139
-0.016196
-0.016196
-0.016196
-0.008139
-0.032309
-0.008139
-0.016196
-0.024253
-0.032309
-0.048423
-0.040366
-0.000083
-0.024253
0.007974
-0.040366
-0.040366
-0.016196
-0.040366
-0.024253
-0.040366
-0.016196
-0.016196
-0.048423
0.007974
0.185220
0.298013
0.338296
0.394693
0.386636
0.338296
0.370523
0.354410
0.410806
0.475259
0.443033
0.418863
0.410806
0.362466
0.281900
0.233560
0.217447
0.169107
0.128824
0.048257
0.056314
0.016031
0.007974
0.040201
-0.016196
-0.000083
-0.032309
-0.040366
-0.008139
0.007974
-0.024253
0.007974
-0.008139
-0.000083
0.016031
-0.008139
-0.024253
-0.016196
-0.000083
-0.000083
0.032144
-0.000083
0.007974
0.024087
-0.016196
-0.024253
-0.008139
-0.000083
0.032144
0.016031
-0.016196
0.032144
-0.008139
0.024087
0.016031
0.007974
-0.000083
0.016031
-0.016196
0.007974
0.032144
0.016031
0.007974
-0.032309
-0.209555
-0.378745
-0.443198
-0.402915
-0.410971
-0.394858
-0.378745
-0.402915
-0.354575
-0.282065
-0.217612
-0.193442
-0.145102
-0.120932
-0.096762
-0.080649
-0.072592
-0.016196
-0.040366
-0.040366
-0.024253
-0.008139
0.032144
0.048257
0.032144
0.016031
0.064370
0.016031
-0.000083
0.032144
0.007974
-0.016196
-0.000083
0.007974
-0.000083
0.007974
-0.000083
0.007974
-0.000083
-0.024253
-0.008139
-0.000083
-0.024253
-0.008139
0.032144
-0.032309
-0.024253
-0.024253
-0.024253
-0.024253
-0.032309
-0.024253
-0.032309
-0.024253
-0.024253
-0.040366
-0.016196
-0.024253
-0.008139
-0.000083
-0.024253
-0.024253
-0.000083
0.016031
0.209390
0.322183
0.402749
0.410806
0.386636
0.354410
0.378579
0.346353
0.330240
0.249673
0.201333
0.169107
0.161050
0.104654
0.088540
0.088540
0.056314
0.032144
-0.000083
-0.024253
-0.048423
-0.008139
-0.016196
-0.024253
-0.016196
-0.032309
-0.032309
-0.040366
-0.024253
-0.040366
-0.056479
0.016031
0.152993
0.201333
0.241617
0.209390
0.193277
0.185220
0.152993
0.128824
0.040201
0.007974
0.040201
0.007974
0.016031
0.016031
0.016031
0.016031
-0.016196
0.032144
-0.000083
-0.024253
0.007974
-0.008139
0.007974
0.007974
-0.024253
0.024087
0.007974
-0.008139
0.024087
0.024087
-0.000083
-0.040366
-0.241782
-0.370688
-0.435141
-0.386801
-0.402915
-0.410971
-0.386801
-0.386801
-0.314292
-0.265952
-0.225669
-0.153159
-0.112876
-0.128989
-0.096762
-0.072592
-0.056479
-0.000083
-0.008139
0.016031
0.016031
-0.000083
-0.000083
0.032144
-0.000083
-0.000083
0.016031
0.016031
-0.008139
0.040201
0.040201
0.024087
-0.008139
-0.008139
-0.008139
0.007974
0.016031
-0.008139
-0.000083
-0.008139
-0.016196
0.007974
-0.024253
-0.024253
-0.040366
-0.024253
-0.008139
-0.008139
-0.000083
-0.040366
-0.016196
-0.032309
-0.000083
-0.016196
0.016031
-0.024253
-0.008139
-0.032309
-0.040366
-0.032309
-0.032309
0.032144
-0.016196
0.048257
0.241617
0.370523
0.402749
0.410806
0.378579
0.370523
0.410806
0.346353
0.322183
0.273843
0.185220
0.144937
0.128824
0.096597
0.064370
0.056314
0.032144
0.048257
0.048257
0.007974
-0.032309
-0.024253
-0.032309
0.016031
-0.008139
-0.016196
-0.024253
-0.024253
0.007974
-0.040366
-0.024253
-0.032309
-0.024253
-0.008139
-0.024253
-0.032309
-0.032309
-0.024253
-0.008139
0.040201
0.007974
-0.000083
0.007974
-0.016196
-0.000083
0.007974
0.040201
-0.008139
0.007974
0.040201
0.016031
0.016031
-0.024253
-0.024253
-0.008139
-0.032309
-0.000083
-0.024253
-0.008139
-0.024253
-0.008139
0.104654
0.193277
0.169107
-0.048423
-0.161215
-0.201499
-0.249839
-0.225669
-0.249839
-0.282065
-0.338462
-0.274008
-0.249839
-0.169272
-0.128989
-0.128989
-0.088706
-0.080649
-0.072592
-0.056479
-0.024253
-0.056479
0.007974
0.007974
0.032144
0.007974
0.032144
0.016031
0.032144
0.024087
-0.000083
-0.000083
-0.008139
0.032144
-0.000083
0.032144
-0.016196
0.016031
-0.008139
0.016031
-0.008139
-0.008139
-0.016196
0.032144
-0.000083
0.007974
-0.032309
-0.032309
0.007974
-0.040366
-0.000083
-0.040366
-0.048423
-0.016196
-0.024253
-0.040366
-0.032309
-0.040366
-0.056479
-0.032309
-0.016196
-0.032309
-0.000083
-0.032309
-0.024253
-0.008139
0.056314
0.241617
0.378579
0.402749
0.394693
0.386636
0.362466
0.338296
0.281900
0.338296
0.298013
0.169107
0.169107
0.144937
0.104654
0.104654
0.048257
0.064370
-0.016196
0.007974
0.007974
-0.016196
-0.048423
-0.024253
-0.000083
-0.024253
-0.032309
-0.024253
-0.016196
-0.040366
-0.024253
-0.016196
-0.008139
-0.024253
-0.008139
-0.024253
0.024087
0.024087
0.016031
0.024087
-0.024253
0.007974
-0.024253
0.007974
-0.008139
-0.016196
0.016031
-0.008139
0.024087
0.024087
0.024087
-0.000083
-0.000083
-0.000083
0.032144
0.024087
0.007974
0.007974
-0.008139
0.016031
-0.008139
-0.016196
0.007974
0.024087
-0.120932
-0.298178
-0.394858
-0.402915
-0.386801
-0.394858
-0.378745
-0.386801
-0.362632
-0.298178
-0.225669
-0.193442
-0.177329
-0.120932
-0.088706
-0.104819
-0.064536
-0.104819
-0.024253
-0.048423
-0.000083
0.007974
-0.000083
0.056314
0.169107
0.177163
0.233560
0.144937
0.128824
0.064370
0.080484
0.064370
0.016031
0.032144
0.032144
-0.008139
0.032144
0.024087
-0.016196
-0.024253
0.007974
-0.000083
-0.008139
-0.000083
-0.016196
-0.000083
-0.048423
-0.024253
-0.032309
0.024087
-0.024253
-0.040366
0.007974
-0.032309
-0.024253
-0.008139
-0.016196
-0.024253
-0.016196
-0.032309
-0.016196
0.007974
-0.032309
-0.048423
0.112710
0.249673
0.378579
0.426919
0.394693
0.370523
0.378579
0.354410
0.330240
0.322183
0.225503
0.193277
0.161050
0.128824
0.072427
0.104654
0.096597
0.056314
0.040201
-0.000083
-0.016196
-0.000083
-0.000083
0.016031
-0.040366
-0.008139
-0.000083
-0.024253
-0.024253
-0.008139
-0.024253
-0.000083
-0.016196
0.016031
-0.000083
-0.000083
-0.032309
-0.000083
-0.032309
-0.008139
0.016031
0.032144
-0.000083
0.040201
0.024087
0.024087
-0.000083
0.007974
0.016031
-0.000083
-0.008139
-0.000083
0.016031
-0.000083
0.016031
0.016031
0.007974
-0.000083
0.007974
0.024087
0.024087
0.040201
