-2.896015
-3.226338
-1.856709
-0.906025
-0.648213
-0.390400
-0.180927
-0.084248
-0.035908
-0.019795
-0.003681
-0.003681
-0.003681
0.028545
-0.027851
0.020489
-0.003681
-0.019795
-0.003681
0.004375
0.012432
0.028545
-0.035908
0.028545
-0.027851
-0.003681
-0.003681
-0.011738
0.012432
0.012432
0.020489
0.004375
-0.003681
-0.003681
-0.019795
-0.027851
-0.043965
-0.011738
-0.035908
-0.043965
-0.035908
0.012432
-0.011738
-0.035908
-0.019795
0.012432
0.229961
0.407207
0.471660
0.536114
0.544170
0.520000
0.471660
0.479717
0.487774
0.439434
0.423321
0.399151
0.334698
0.270244
0.213848
0.205791
0.157451
0.149395
0.149395
0.141338
0.076885
0.068828
0.036602
0.028545
0.101055
0.229961
0.221905
0.238018
0.229961
0.205791
0.109112
0.109112
0.084942
0.060772
0.076885
0.060772
0.052715
0.052715
0.068828
0.076885
0.068828
0.092998
0.092998
0.092998
0.125225
0.092998
0.084942
0.076885
0.101055
0.068828
0.092998
0.101055
0.092998
0.084942
0.076885
0.044658
0.044658
0.068828
0.036602
0.092998
0.060772
-0.043965
-0.293720
-0.559590
-0.648213
-0.664326
-0.591816
-0.615986
-0.575703
-0.567646
-0.519306
-0.511250
-0.511250
-0.511250
-0.503193
-0.430683
-0.374287
-0.301777
-0.253437
-0.245381
-0.221211
-0.180927
-0.156758
-0.148701
-0.092304
-0.132588
-0.100361
-0.076191
-0.035908
0.028545
-0.019795
-0.011738
0.004375
0.052715
0.012432
-0.003681
0.012432
0.012432
-0.003681
0.028545
-0.011738
0.020489
0.004375
-0.003681
-0.003681
-0.003681
-0.019795
-0.011738
-0.011738
0.012432
-0.011738
-0.019795
-0.019795
-0.043965
0.012432
-0.027851
-0.019795
-0.019795
-0.043965
0.004375
-0.035908
-0.011738
-0.011738
-0.003681
-0.011738
-0.027851
0.004375
0.246075
0.447491
0.536114
0.544170
0.544170
0.503887
0.503887
0.503887
0.423321
0.407207
0.431377
0.439434
0.391094
0.342754
0.270244
0.205791
0.181621
0.117168
0.141338
0.117168
0.084942
0.068828
0.076885
0.060772
0.020489
-0.019795
-0.011738
-0.043965
-0.027851
-0.035908
-0.011738
-0.043965
0.004375
-0.011738
-0.027851
-0.035908
0.004375
0.020489
-0.011738
-0.003681
0.004375
0.020489
0.020489
0.020489
0.044658
0.036602
0.020489
0.052715
0.117168
0.246075
0.278301
0.294414
0.213848
0.221905
0.205791
0.197735
0.165508
0.068828
0.068828
0.044658
0.044658
0.044658
0.012432
0.012432
0.036602
-0.043965
-0.261494
-0.374287
-0.470967
-0.503193
-0.454853
-0.446797
-0.414570
-0.414570
-0.430683
-0.390400
-0.382343
-0.293720
-0.229267
-0.213154
-0.180927
-0.132588
-0.132588
-0.092304
-0.060078
-0.027851
-0.011738
0.004375
0.004375
0.020489
-0.003681
0.020489
0.028545
-0.003681
-0.011738
-0.011738
0.020489
-0.003681
-0.003681
-0.003681
0.044658
-0.003681
-0.003681
0.020489
-0.011738
0.004375
-0.011738
-0.035908
-0.027851
-0.019795
0.004375
0.004375
-0.011738
0.020489
-0.019795
-0.052021
0.012432
-0.027851
-0.027851
0.012432
-0.043965
-0.035908
-0.003681
-0.019795
-0.027851
-0.043965
0.004375
-0.003681
-0.035908
-0.052021
0.028545
0.229961
0.358867
0.439434
0.415264
0.415264
0.407207
0.391094
0.399151
0.399151
0.326641
0.286358
0.221905
0.149395
0.109112
0.109112
0.101055
0.084942
0.036602
0.012432
0.004375
-0.011738
-0.019795
-0.003681
-0.043965
0.004375
-0.043965
-0.035908
-0.003681
-0.027851
-0.003681
-0.035908
0.004375
0.044658
0.012432
-0.011738
0.004375
0.028545
0.004375
0.012432
0.012432
-0.003681
0.020489
0.020489
0.028545
0.036602
0.028545
0.052715
0.020489
0.028545
0.004375
0.028545
0.028545
0.036602
0.012432
0.004375
0.036602
0.044658
0.012432
0.020489
0.004375
0.028545
0.012432
0.036602
-0.052021
-0.205097
-0.325947
-0.414570
-0.462910
-0.438740
-0.454853
-0.406513
-0.430683
-0.430683
-0.358174
-0.261494
-0.060078
0.028545
0.092998
0.076885
0.101055
0.052715
0.060772
-0.003681
0.020489
-0.003681
0.012432
0.028545
0.004375
-0.003681
0.020489
0.020489
0.044658
0.012432
0.020489
0.012432
0.036602
0.004375
-0.019795
0.012432
0.012432
-0.011738
0.020489
-0.003681
-0.011738
-0.027851
-0.003681
-0.003681
0.004375
-0.011738
-0.011738
0.012432
0.044658
-0.011738
0.004375
0.012432
-0.003681
0.004375
-0.011738
-0.043965
-0.027851
-0.043965
-0.035908
-0.027851
-0.011738
-0.027851
-0.035908
-0.027851
-0.035908
0.141338
0.278301
0.374981
0.423321
0.431377
0.399151
0.383037
0.415264
0.350811
0.350811
0.286358
0.205791
0.173565
0.101055
0.084942
0.060772
0.044658
0.036602
0.028545
0.004375
0.028545
-0.035908
-0.035908
-0.035908
-0.011738
-0.003681
-0.027851
-0.019795
-0.043965
-0.019795
-0.011738
0.004375
-0.003681
0.012432
-0.003681
-0.019795
-0.019795
-0.011738
0.004375
0.036602
0.036602
0.004375
0.020489
0.044658
-0.003681
0.012432
0.012432
-0.003681
0.012432
0.028545
0.020489
0.004375
0.060772
0.036602
0.028545
0.012432
0.020489
-0.003681
0.020489
0.068828
0.012432
-0.011738
-0.011738
-0.003681
-0.116474
-0.269550
-0.414570
-0.414570
-0.446797
-0.430683
-0.406513
-0.406513
-0.382343
-0.366230
-0.269550
-0.221211
-0.205097
-0.156758
-0.108418
-0.100361
-0.043965
-0.068134
-0.052021
-0.003681
-0.003681
0.020489
-0.019795
0.004375
0.020489
0.012432
0.012432
-0.035908
-0.043965
-0.027851
-0.027851
-0.011738
0.004375
-0.019795
-0.035908
0.012432
0.117168
0.213848
0.229961
0.254131
0.205791
0.165508
0.141338
0.092998
0.060772
0.028545
-0.003681
-0.003681
-0.011738
-0.019795
-0.027851
0.004375
-0.011738
-0.035908
-0.019795
0.004375
-0.035908
-0.027851
-0.035908
-0.043965
-0.011738
-0.043965
-0.027851
-0.035908
0.076885
0.254131
0.358867
0.407207
0.407207
0.407207
0.366924
0.366924
0.366924
0.286358
0.229961
0.149395
0.157451
0.076885
0.092998
0.068828
0.052715
0.036602
0.012432
-0.011738
0.004375
-0.035908
-0.019795
-0.027851
-0.035908
-0.035908
-0.052021
-0.043965
-0.043965
-0.019795
0.004375
-0.019795
-0.011738
-0.019795
-0.003681
-0.003681
0.004375
-0.035908
0.020489
0.004375
0.028545
0.020489
-0.003681
-0.003681
0.004375
0.028545
-0.003681
-0.003681
0.036602
-0.003681
0.028545
0.012432
0.020489
0.012432
0.028545
0.012432
0.012432
-0.003681
0.028545
0.028545
0.004375
0.020489
-0.003681
-0.003681
-0.100361
-0.293720
-0.342060
-0.438740
-0.414570
-0.398457
-0.390400
-0.422627
-0.366230
-0.334004
-0.261494
-0.188984
-0.148701
-0.092304
-0.092304
-0.108418
-0.068134
-0.076191
-0.027851
-0.076191
-0.027851
0.012432
0.028545
0.028545
0.012432
0.004375
0.020489
0.020489
0.004375
-0.019795
0.012432
0.004375
0.020489
0.020489
-0.019795
0.020489
0.020489
0.020489
0.012432
-0.019795
-0.027851
-0.011738
-0.027851
-0.011738
-0.003681
-0.060078
-0.011738
-0.027851
-0.027851
-0.035908
-0.011738
-0.019795
-0.060078
-0.019795
-0.003681
-0.043965
-0.019795
-0.043965
-0.035908
-0.043965
-0.035908
-0.068134
-0.011738
-0.035908
0.141338
0.431377
0.568340
0.616680
0.592510
0.560283
0.552227
0.479717
0.439434
0.366924
0.246075
0.213848
0.157451
0.133282
0.101055
0.076885
0.028545
0.028545
0.036602
0.020489
-0.035908
0.004375
-0.043965
-0.035908
-0.027851
-0.019795
-0.011738
-0.043965
0.004375
0.004375
0.012432
-0.052021
-0.043965
-0.060078
-0.011738
-0.035908
-0.027851
-0.003681
-0.019795
-0.003681
-0.027851
0.004375
-0.003681
-0.019795
0.020489
0.028545
0.036602
0.004375
0.012432
0.004375
0.004375
-0.003681
0.012432
-0.011738
0.012432
0.004375
0.020489
0.028545
0.012432
0.012432
0.012432
-0.011738
0.020489
-0.011738
-0.148701
-0.293720
-0.382343
-0.446797
-0.430683
-0.398457
-0.398457
-0.414570
-0.366230
-0.342060
-0.253437
-0.221211
-0.164814
-0.148701
-0.108418
-0.092304
-0.084248
-0.068134
-0.068134
-0.019795
-0.011738
-0.003681
0.028545
0.020489
0.004375
0.020489
-0.003681
-0.027851
0.020489
-0.011738
0.020489
-0.011738
0.012432
0.012432
-0.035908
-0.011738
-0.011738
0.004375
0.020489
-0.019795
-0.035908
-0.027851
-0.019795
-0.011738
-0.019795
0.004375
-0.052021
-0.035908
-0.011738
-0.043965
-0.043965
-0.035908
-0.019795
-0.027851
-0.019795
-0.027851
-0.043965
-0.003681
-0.003681
-0.027851
0.012432
-0.011738
-0.011738
-0.035908
0.117168
0.286358
0.383037
0.399151
0.391094
0.383037
0.407207
0.366924
0.350811
0.310528
0.270244
0.213848
0.173565
0.133282
0.068828
0.076885
0.036602
-0.003681
0.020489
-0.019795
0.004375
-0.035908
-0.027851
0.068828
0.157451
0.197735
0.205791
0.173565
0.165508
0.133282
0.109112
0.068828
0.036602
0.028545
0.020489
0.036602
0.012432
-0.003681
-0.011738
-0.003681
0.004375
0.020489
0.012432
0.004375
0.012432
0.020489
-0.003681
-0.011738
0.012432
0.012432
0.044658
-0.019795
0.004375
-0.003681
-0.003681
0.012432
-0.003681
-0.011738
0.012432
-0.003681
0.028545
0.004375
-0.011738
-0.003681
-0.172871
-0.309834
-0.398457
-0.446797
-0.422627
-0.382343
-0.374287
-0.390400
-0.374287
-0.285664
-0.213154
-0.197041
-0.180927
-0.124531
-0.100361
-0.108418
-0.076191
-0.052021
-0.019795
-0.003681
-0.003681
-0.003681
0.020489
0.004375
-0.011738
0.020489
-0.011738
-0.003681
0.020489
-0.003681
-0.027851
0.028545
0.020489
0.028545
0.012432
-0.019795
0.028545
0.028545
-0.027851
0.020489
-0.019795
-0.019795
-0.043965
-0.019795
-0.019795
-0.011738
-0.019795
-0.003681
-0.019795
-0.003681
-0.027851
-0.011738
-0.003681
-0.019795
-0.011738
-0.019795
-0.027851
-0.003681
-0.011738
-0.043965
-0.011738
-0.027851
-0.019795
-0.003681
0.117168
0.262188
0.374981
0.431377
0.383037
0.358867
0.383037
0.374981
0.350811
0.246075
0.213848
0.157451
0.125225
0.084942
0.084942
0.052715
0.092998
0.044658
0.004375
0.012432
-0.011738
-0.003681
-0.052021
-0.003681
-0.035908
-0.019795
-0.035908
-0.035908
-0.019795
-0.011738
0.020489
-0.052021
-0.011738
-0.003681
0.028545
0.012432
-0.019795
-0.019795
-0.003681
0.012432
-0.003681
-0.003681
0.004375
-0.003681
0.020489
0.012432
0.036602
-0.035908
0.028545
0.044658
-0.019795
-0.011738
0.012432
0.133282
0.213848
0.254131
0.229961
0.205791
0.181621
0.157451
0.117168
0.092998
0.036602
0.052715
-0.100361
-0.309834
-0.382343
-0.430683
-0.414570
-0.406513
-0.390400
-0.350117
-0.358174
-0.293720
-0.253437
-0.188984
-0.108418
-0.140644
-0.124531
-0.116474
-0.108418
-0.060078
-0.068134
-0.019795
-0.019795
-0.011738
0.028545
-0.011738
0.060772
0.012432
0.012432
-0.011738
-0.003681
-0.003681
0.036602
-0.019795
-0.003681
0.004375
0.012432
-0.027851
-0.003681
-0.019795
0.020489
0.044658
-0.003681
-0.011738
-0.003681
0.012432
-0.019795
-0.027851
-0.027851
-0.027851
-0.043965
-0.011738
-0.019795
-0.052021
-0.052021
-0.019795
-0.060078
-0.019795
-0.019795
-0.019795
-0.035908
-0.011738
0.004375
-0.035908
-0.052021
-0.019795
0.101055
0.294414
0.366924
0.407207
0.407207
0.383037
0.366924
0.374981
0.350811
0.294414
0.221905
0.189678
0.133282
0.092998
0.084942
0.060772
0.060772
0.068828
0.004375
-0.011738
0.004375
-0.027851
-0.019795
-0.035908
-0.035908
-0.019795
-0.027851
-0.035908
-0.011738
-0.035908
-0.019795
-0.003681
0.020489
-0.003681
-0.003681
-0.027851
0.012432
-0.011738
0.028545
-0.011738
-0.003681
-0.027851
0.004375
-0.003681
-0.003681
0.020489
0.004375
0.028545
0.020489
-0.011738
-0.003681
0.004375
0.020489
0.020489
0.012432
0.020489
-0.003681
0.012432
-0.035908
-0.003681
0.004375
0.004375
0.012432
-0.027851
-0.132588
-0.309834
-0.438740
-0.462910
-0.414570
-0.414570
-0.406513
-0.414570
-0.382343
-0.309834
-0.213154
-0.237324
-0.197041
-0.148701
-0.003681
0.101055
0.149395
0.173565
0.173565
0.141338
0.141338
0.125225
0.141338
0.109112
0.044658
0.044658
0.028545
0.020489
-0.019795
0.004375
-0.003681
0.004375
-0.027851
-0.011738
0.004375
-0.003681
0.012432
-0.019795
0.004375
-0.003681
-0.035908
-0.019795
-0.019795
-0.068134
-0.052021
-0.052021
-0.052021
0.012432
-0.043965
-0.011738
-0.011738
-0.019795
-0.027851
-0.011738
-0.019795
-0.003681
-0.035908
-0.027851
-0.035908
-0.035908
-0.035908
-0.019795
0.004375
-0.011738
0.165508
0.302471
0.358867
0.374981
0.407207
0.399151
0.366924
0.366924
0.350811
0.270244
0.238018
0.165508
0.125225
0.109112
0.068828
0.084942
0.060772
-0.011738
-0.003681
0.036602
0.028545
-0.035908
-0.019795
-0.035908
-0.027851
-0.003681
-0.027851
-0.027851
-0.027851
-0.052021
-0.027851
-0.003681
-0.035908
-0.019795
-0.011738
-0.003681
0.004375
-0.003681
-0.027851
-0.019795
0.012432
-0.011738
0.020489
0.004375
0.036602
0.036602
0.036602
0.036602
-0.003681
0.012432
0.012432
0.028545
0.060772
0.004375
0.060772
-0.003681
0.012432
0.004375
-0.027851
0.028545
0.004375
0.012432
0.020489
-0.019795
-0.180927
-0.366230
-0.438740
-0.454853
-0.422627
-0.390400
-0.398457
-0.390400
-0.366230
-0.293720
-0.269550
-0.180927
-0.164814
-0.132588
-0.108418
-0.116474
-0.068134
-0.043965
-0.011738
-0.035908
-0.003681
-0.011738
0.004375
0.004375
0.004375
0.004375
-0.003681
-0.011738
-0.003681
0.004375
0.044658
0.020489
-0.011738
-0.027851
-0.011738
0.004375
0.012432
-0.019795
-0.011738
-0.043965
-0.011738
-0.019795
0.092998
0.173565
0.238018
0.213848
0.189678
0.157451
0.157451
0.109112
0.060772
0.036602
0.020489
0.012432
0.020489
0.012432
-0.011738
-0.019795
-0.019795
0.012432
-0.035908
-0.003681
-0.003681
0.004375
0.133282
0.326641
0.415264
0.415264
0.407207
0.374981
0.366924
0.366924
0.350811
0.270244
0.189678
0.165508
0.109112
0.092998
0.084942
0.076885
0.060772
0.036602
-0.011738
0.004375
-0.003681
-0.011738
-0.035908
0.004375
-0.043965
-0.035908
-0.019795
-0.003681
-0.019795
-0.027851
0.004375
0.012432
0.012432
-0.003681
-0.011738
-0.052021
-0.027851
-0.019795
-0.035908
-0.027851
0.020489
0.012432
0.020489
0.004375
0.012432
-0.027851
0.044658
0.020489
0.004375
0.012432
-0.011738
-0.003681
0.028545
0.020489
0.028545
-0.019795
-0.011738
0.012432
-0.003681
0.028545
-0.027851
0.004375
0.020489
-0.027851
-0.164814
-0.342060
-0.430683
-0.398457
-0.430683
-0.406513
-0.414570
-0.390400
-0.382343
-0.277607
-0.253437
-0.164814
-0.140644
-0.092304
-0.108418
-0.068134
-0.116474
-0.060078
-0.003681
0.004375
-0.011738
0.020489
0.004375
0.004375
-0.011738
0.004375
0.012432
0.036602
0.004375
-0.019795
0.012432
0.012432
0.028545
0.020489
-0.027851
-0.003681
-0.019795
-0.011738
-0.003681
-0.003681
-0.003681
-0.027851
-0.019795
0.012432
0.020489
-0.043965
-0.019795
-0.003681
0.004375
-0.035908
-0.003681
-0.035908
-0.027851
-0.035908
-0.011738
-0.035908
-0.043965
-0.035908
-0.027851
-0.027851
-0.060078
-0.019795
-0.043965
0.012432
0.157451
0.423321
0.616680
0.648907
0.624737
0.560283
0.576397
0.520000
0.463604
0.391094
0.326641
0.238018
0.165508
0.133282
0.101055
0.076885
0.084942
0.020489
0.028545
-0.027851
0.012432
-0.019795
-0.035908
-0.011738
-0.027851
0.004375
-0.019795
-0.027851
-0.019795
-0.011738
-0.003681
-0.019795
-0.027851
0.004375
-0.011738
-0.003681
-0.011738
0.004375
-0.003681
0.020489
-0.027851
-0.035908
0.004375
-0.011738
0.020489
-0.003681
0.020489
-0.003681
0.020489
0.036602
0.020489
0.020489
0.012432
-0.003681
-0.003681
-0.011738
0.020489
-0.011738
0.028545
0.012432
0.020489
0.004375
0.036602
-0.011738
-0.156758
-0.358174
-0.406513
-0.438740
-0.390400
-0.382343
-0.382343
-0.366230
-0.334004
-0.317890
-0.245381
-0.140644
-0.172871
-0.116474
-0.100361
-0.092304
-0.035908
-0.043965
-0.011738
-0.011738
0.012432
-0.003681
0.020489
-0.011738
-0.003681
-0.027851
0.012432
-0.003681
-0.003681
0.012432
0.020489
-0.035908
0.012432
-0.019795
-0.019795
-0.027851
-0.003681
-0.019795
-0.003681
0.012432
-0.027851
-0.027851
-0.011738
-0.035908
0.028545
-0.027851
-0.011738
-0.035908
-0.019795
-0.011738
-0.043965
0.004375
-0.035908
-0.019795
-0.035908
-0.043965
-0.027851
-0.043965
-0.060078
-0.035908
-0.035908
-0.011738
-0.019795
0.036602
0.189678
0.342754
0.399151
0.415264
0.350811
0.374981
0.374981
0.374981
0.334698
0.286358
0.189678
0.165508
0.133282
0.133282
0.109112
0.044658
0.060772
0.036602
-0.019795
-0.019795
0.004375
-0.011738
-0.011738
-0.011738
-0.043965
-0.052021
-0.060078
-0.060078
-0.043965
-0.035908
-0.011738
0.092998
0.197735
0.221905
0.229961
0.197735
0.189678
0.157451
0.125225
0.084942
0.036602
0.044658
0.052715
0.028545
0.060772
0.020489
0.036602
0.020489
0.012432
0.012432
-0.003681
0.004375
0.020489
0.052715
0.004375
0.012432
-0.011738
-0.003681
0.012432
-0.011738
0.004375
0.004375
0.012432
-0.011738
-0.221211
-0.366230
-0.374287
-0.438740
-0.414570
-0.406513
-0.382343
-0.374287
-0.358174
-0.285664
-0.156758
-0.172871
-0.124531
-0.132588
-0.124531
-0.108418
-0.052021
-0.011738
-0.060078
0.020489
-0.003681
-0.011738
0.036602
0.028545
0.012432
0.004375
0.004375
0.012432
-0.019795
-0.011738
-0.027851
0.004375
-0.019795
-0.003681
0.012432
-0.003681
0.012432
0.004375
-0.019795
0.004375
-0.011738
-0.011738
-0.011738
-0.003681
-0.019795
-0.011738
0.012432
-0.019795
0.020489
0.004375
-0.003681
-0.027851
0.004375
0.020489
-0.027851
-0.011738
-0.043965
-0.003681
-0.011738
0.004375
-0.027851
-0.027851
-0.035908
0.020489
0.246075
0.310528
0.423321
0.383037
0.366924
0.358867
0.358867
0.383037
0.326641
0.254131
0.221905
0.181621
0.101055
0.092998
0.068828
0.076885
0.044658
0.020489
0.004375
-0.011738
-0.027851
-0.003681
-0.003681
-0.043965
-0.035908
-0.019795
-0.035908
-0.019795
-0.027851
0.004375
-0.011738
-0.019795
-0.019795
-0.011738
-0.011738
-0.052021
0.004375
0.012432
0.004375
0.012432
0.004375
0.020489
-0.011738
0.028545
-0.011738
-0.019795
0.004375
-0.003681
-0.011738
-0.011738
0.020489
-0.003681
-0.011738
-0.011738
-0.019795
0.028545
0.117168
0.229961
0.254131
0.246075
0.221905
0.189678
0.173565
0.068828
-0.124531
-0.301777
-0.390400
-0.422627
-0.358174
-0.382343
-0.390400
-0.382343
-0.334004
-0.245381
-0.188984
-0.172871
-0.172871
-0.132588
-0.108418
-0.084248
-0.068134
-0.027851
0.004375
-0.019795
-0.011738
-0.003681
0.012432
0.028545
0.012432
0.004375
-0.019795
-0.019795
-0.011738
0.004375
0.004375
-0.003681
-0.011738
-0.003681
0.004375
0.020489
-0.027851
-0.011738
0.012432
0.028545
-0.003681
-0.043965
-0.019795
-0.027851
-0.027851
-0.019795
-0.011738
-0.035908
-0.035908
-0.019795
-0.060078
-0.043965
-0.019795
-0.027851
-0.035908
-0.019795
-0.019795
0.012432
-0.035908
-0.019795
-0.035908
-0.019795
-0.019795
0.028545
0.213848
0.383037
0.415264
0.407207
0.407207
0.342754
0.383037
0.374981
0.350811
0.270244
0.173565
0.149395
0.125225
0.084942
0.068828
0.036602
0.044658
0.020489
-0.027851
-0.011738
-0.035908
-0.035908
-0.019795
-0.052021
-0.019795
-0.011738
-0.003681
-0.019795
-0.035908
0.004375
-0.011738
-0.003681
0.052715
-0.019795
-0.035908
-0.019795
-0.027851
-0.019795
0.020489
0.012432
-0.003681
-0.019795
0.020489
0.020489
0.020489
0.020489
0.004375
0.004375
0.012432
-0.003681
0.028545
0.012432
0.004375
0.028545
-0.011738
0.012432
0.028545
0.012432
0.004375
-0.003681
-0.003681
0.044658
0.028545
-0.060078
-0.213154
-0.406513
-0.398457
-0.414570
-0.398457
-0.350117
-0.414570
-0.398457
-0.366230
-0.269550
-0.221211
-0.197041
-0.156758
-0.108418
-0.108418
-0.108418
-0.108418
-0.060078
-0.035908
-0.027851
0.068828
0.205791
0.294414
0.238018
0.229961
0.189678
0.165508
0.117168
0.076885
0.101055
0.092998
0.084942
0.068828
0.028545
0.028545
0.020489
-0.027851
0.020489
-0.011738
0.020489
-0.027851
-0.027851
-0.011738
-0.011738
-0.011738
-0.011738
-0.043965
-0.011738
-0.019795
-0.003681
-0.011738
-0.027851
-0.019795
-0.003681
-0.027851
-0.027851
-0.003681
-0.011738
-0.035908
0.012432
-0.011738
0.004375
-0.011738
0.028545
0.254131
0.326641
0.415264
0.383037
0.358867
0.358867
0.399151
0.350811
0.294414
0.270244
0.181621
0.157451
0.109112
0.076885
0.092998
0.052715
0.060772
0.012432
-0.027851
-0.019795
-0.027851
-0.019795
-0.019795
0.012432
-0.043965
-0.019795
-0.011738
-0.003681
-0.011738
-0.027851
-0.052021
-0.043965
-0.011738
0.012432
-0.011738
-0.019795
-0.011738
-0.027851
-0.035908
-0.011738
-0.011738
0.020489
-0.019795
-0.027851
0.004375
-0.011738
0.004375
0.028545
0.020489
0.028545
0.004375
0.036602
0.028545
-0.027851
0.028545
-0.011738
0.020489
0.028545
0.004375
0.036602
0.020489
-0.003681
0.020489
-0.084248
-0.229267
-0.350117
-0.422627
-0.390400
-0.406513
-0.398457
-0.414570
-0.390400
-0.350117
-0.309834
-0.229267
-0.188984
-0.156758
-0.116474
-0.100361
-0.124531
-0.060078
-0.035908
-0.019795
0.012432
0.012432
0.028545
0.020489
0.004375
0.028545
0.020489
-0.003681
-0.003681
-0.019795
0.028545
-0.011738
0.028545
0.020489
-0.003681
-0.027851
0.004375
-0.011738
-0.019795
-0.019795
-0.027851
0.028545
-0.019795
-0.019795
0.044658
0.157451
0.213848
0.221905
0.205791
0.181621
0.133282
0.084942
0.036602
0.036602
0.020489
0.036602
0.028545
-0.011738
-0.019795
-0.035908
-0.011738
-0.019795
-0.027851
-0.027851
0.060772
0.221905
0.342754
0.374981
0.407207
0.391094
0.366924
0.383037
0.350811
0.302471
0.246075
0.189678
0.157451
0.117168
0.084942
0.084942
0.036602
0.020489
-0.003681
-0.027851
-0.019795
-0.019795
-0.027851
-0.043965
-0.043965
-0.035908
-0.035908
-0.052021
-0.035908
-0.035908
-0.060078
-0.011738
-0.019795
-0.011738
0.004375
-0.019795
0.012432
-0.027851
0.004375
-0.019795
-0.019795
-0.035908
-0.011738
-0.003681
-0.003681
0.012432
0.012432
0.020489
-0.011738
-0.019795
0.012432
0.020489
0.052715
0.004375
0.020489
0.028545
0.004375
-0.003681
0.004375
-0.003681
0.012432
0.004375
0.004375
0.020489
-0.060078
-0.261494
-0.366230
-0.438740
-0.438740
-0.398457
-0.406513
-0.422627
-0.382343
-0.350117
-0.245381
-0.205097
-0.164814
-0.116474
-0.084248
-0.108418
-0.100361
-0.076191
-0.027851
-0.019795
0.004375
0.012432
-0.003681
0.012432
0.028545
0.012432
-0.019795
0.004375
0.020489
0.020489
-0.011738
-0.011738
-0.011738
0.004375
-0.003681
-0.003681
-0.011738
-0.019795
0.004375
-0.043965
0.012432
-0.011738
-0.003681
0.012432
-0.003681
-0.011738
-0.027851
-0.019795
-0.003681
0.004375
-0.003681
-0.035908
-0.003681
-0.003681
0.004375
-0.027851
-0.035908
-0.035908
-0.060078
-0.027851
-0.019795
-0.035908
-0.043965
-0.043965
0.068828
0.270244
0.342754
0.366924
0.374981
0.350811
0.342754
0.342754
0.326641
0.342754
0.350811
0.415264
0.399151
0.334698
0.286358
0.262188
0.213848
0.181621
0.117168
0.060772
0.020489
-0.043965
-0.027851
-0.043965
-0.035908
-0.019795
-0.027851
-0.043965
-0.035908
-0.027851
-0.027851
0.004375
0.020489
-0.027851
-0.035908
-0.019795
-0.035908
-0.011738
0.028545
-0.027851
-0.003681
0.004375
-0.027851
0.004375
0.004375
0.036602
0.020489
0.020489
0.020489
-0.003681
0.012432
0.020489
-0.011738
0.020489
-0.019795
0.012432
0.036602
0.020489
0.012432
0.020489
-0.011738
-0.003681
0.020489
-0.011738
-0.084248
-0.277607
-0.366230
-0.390400
-0.398457
-0.382343
-0.414570
-0.398457
-0.374287
-0.334004
-0.253437
-0.229267
-0.172871
-0.148701
-0.116474
-0.108418
-0.084248
-0.068134
-0.027851
-0.011738
0.004375
-0.003681
0.004375
0.012432
-0.019795
-0.019795
-0.027851
-0.019795
0.004375
-0.011738
0.020489
0.012432
-0.011738
0.004375
-0.003681
-0.027851
-0.027851
0.004375
-0.060078
-0.027851
-0.035908
-0.035908
-0.019795
-0.011738
-0.043965
0.004375
-0.035908
-0.035908
-0.060078
-0.035908
-0.043965
-0.052021
-0.027851
-0.035908
-0.011738
-0.027851
-0.060078
-0.019795
-0.019795
-0.011738
-0.027851
-0.035908
-0.068134
-0.027851
0.084942
0.270244
0.399151
0.407207
0.399151
0.374981
0.366924
0.342754
0.358867
0.310528
0.238018
0.181621
0.141338
0.141338
0.109112
0.036602
0.028545
0.060772
0.004375
-0.035908
0.004375
-0.035908
-0.027851
-0.003681
-0.035908
-0.003681
-0.027851
-0.011738
-0.035908
-0.060078
-0.027851
-0.035908
-0.060078
0.004375
0.020489
0.092998
0.221905
0.221905
0.205791
0.181621
0.189678
0.173565
0.125225
0.084942
0.036602
0.076885
0.028545
0.036602
0.020489
0.028545
0.036602
0.012432
0.028545
0.044658
0.028545
0.004375
0.004375
-0.003681
0.028545
0.004375
-0.003681
0.020489
-0.003681
-0.019795
-0.132588
-0.301777
-0.398457
-0.438740
-0.414570
-0.414570
-0.390400
-0.390400
-0.390400
-0.334004
-0.277607
-0.197041
-0.164814
-0.148701
-0.108418
-0.116474
-0.068134
-0.084248
-0.035908
-0.003681
-0.027851
-0.011738
-0.003681
-0.003681
0.020489
-0.003681
-0.011738
-0.003681
-0.003681
-0.003681
-0.003681
-0.003681
-0.003681
-0.027851
-0.003681
-0.011738
0.004375
0.012432
0.004375
-0.003681
-0.019795
-0.003681
-0.011738
-0.035908
-0.035908
-0.035908
-0.035908
0.012432
-0.011738
-0.043965
-0.027851
-0.027851
0.004375
-0.003681
-0.027851
-0.027851
-0.052021
-0.027851
-0.027851
-0.052021
-0.043965
-0.011738
-0.027851
0.012432
0.084942
0.310528
0.383037
0.383037
0.383037
0.366924
0.374981
0.407207
0.350811
0.302471
0.213848
0.149395
0.141338
0.109112
0.133282
0.117168
0.117168
0.036602
-0.011738
-0.003681
-0.027851
-0.011738
-0.043965
-0.052021
-0.019795
-0.052021
-0.060078
-0.060078
-0.019795
-0.019795
-0.027851
-0.019795
-0.052021
-0.027851
-0.011738
-0.011738
-0.011738
-0.011738
-0.003681
0.004375
0.004375
0.028545
-0.003681
0.020489
0.012432
-0.011738
0.012432
-0.011738
0.028545
-0.003681
0.020489
0.036602
-0.003681
0.012432
-0.011738
-0.011738
0.020489
-0.043965
-0.003681
-0.027851
-0.003681
-0.011738
-0.003681
0.068828
0.052715
-0.076191
-0.140644
-0.229267
-0.221211
-0.269550
-0.285664
-0.342060
-0.325947
-0.269550
-0.229267
-0.197041
-0.172871
-0.116474
-0.124531
-0.076191
-0.052021
-0.060078
-0.052021
-0.019795
-0.019795
0.004375
0.004375
-0.003681
-0.003681
0.012432
0.012432
0.012432
0.004375
0.020489
-0.011738
-0.011738
-0.035908
-0.019795
-0.027851
-0.019795
-0.019795
-0.011738
-0.003681
-0.011738
-0.011738
0.004375
-0.027851
-0.011738
-0.035908
-0.003681
-0.043965
-0.043965
-0.027851
-0.019795
-0.027851
-0.011738
-0.035908
-0.043965
-0.019795
-0.019795
-0.035908
-0.035908
-0.011738
0.004375
-0.035908
-0.011738
-0.019795
0.004375
0.109112
0.294414
0.407207
0.415264
0.399151
0.366924
0.350811
0.334698
0.366924
0.318584
0.213848
0.205791
0.157451
0.109112
0.084942
0.076885
0.076885
0.052715
0.020489
0.004375
-0.043965
-0.035908
0.020489
-0.003681
-0.019795
-0.011738
-0.011738
0.004375
-0.019795
0.012432
-0.027851
-0.019795
-0.003681
-0.043965
-0.035908
-0.043965
-0.019795
0.020489
-0.011738
-0.011738
-0.011738
-0.003681
-0.003681
-0.019795
-0.011738
-0.011738
-0.003681
-0.003681
0.004375
-0.011738
-0.027851
-0.011738
-0.019795
-0.011738
0.028545
-0.003681
-0.003681
0.020489
-0.019795
0.020489
0.020489
-0.003681
0.020489
-0.011738
-0.164814
-0.309834
-0.414570
-0.438740
-0.446797
-0.398457
-0.414570
-0.382343
-0.374287
-0.317890
-0.261494
-0.213154
-0.188984
-0.084248
-0.100361
-0.132588
-0.100361
-0.068134
-0.019795
-0.035908
0.004375
-0.027851
0.076885
0.165508
0.213848
0.246075
0.197735
0.189678
0.125225
0.125225
0.109112
0.052715
0.036602
0.012432
0.012432
-0.011738
-0.027851
-0.027851
-0.003681
0.012432
-0.035908
-0.027851
-0.027851
-0.027851
-0.027851
-0.027851
-0.003681
-0.035908
-0.043965
-0.003681
-0.035908
-0.027851
-0.043965
-0.027851
-0.019795
-0.019795
-0.003681
-0.011738
-0.043965
0.004375
-0.043965
-0.027851
-0.035908
-0.011738
0.125225
0.286358
0.366924
0.374981
0.383037
0.326641
0.358867
0.342754
0.334698
0.302471
0.189678
0.173565
0.165508
0.101055
0.125225
0.092998
0.060772
0.060772
0.028545
-0.011738
-0.019795
-0.027851
-0.011738
-0.027851
-0.019795
-0.035908
-0.035908
-0.027851
-0.060078
-0.035908
-0.035908
-0.011738
0.020489
-0.043965
-0.003681
-0.019795
0.012432
-0.019795
0.004375
0.036602
0.004375
0.068828
-0.003681
-0.011738
0.012432
0.012432
0.012432
0.004375
-0.011738
0.004375
0.076885
0.020489
0.004375
0.004375
-0.003681
0.020489
0.028545
0.012432
0.004375
-0.003681
0.020489
-0.027851
0.020489
-0.019795
-0.172871
-0.342060
-0.414570
-0.438740
-0.398457
-0.414570
-0.430683
-0.390400
-0.366230
-0.334004
-0.237324
-0.213154
-0.156758
-0.108418
-0.100361
-0.076191
-0.100361
-0.035908
-0.011738
0.044658
-0.003681
0.020489
0.012432
0.012432
0.020489
0.004375
0.004375
0.012432
-0.003681
0.004375
0.012432
0.036602
-0.027851
-0.003681
-0.003681
-0.019795
-0.027851
-0.027851
0.012432
-0.043965
0.020489
-0.027851
-0.043965
-0.027851
-0.035908
-0.068134
-0.035908
-0.027851
-0.027851
-0.092304
-0.060078
-0.019795
0.076885
0.173565
0.221905
0.229961
0.197735
0.141338
0.125225
0.109112
0.092998
0.036602
-0.011738
0.028545
0.165508
0.334698
0.391094
0.431377
0.407207
0.350811
0.350811
0.374981
0.310528
0.278301
0.221905
0.133282
0.125225
0.068828
0.092998
0.060772
0.044658
0.044658
0.052715
0.020489
-0.011738
-0.035908
-0.035908
-0.003681
-0.043965
-0.027851
-0.060078
-0.011738
-0.035908
0.004375
-0.035908
-0.011738
0.012432
-0.043965
0.012432
0.012432
-0.019795
-0.019795
-0.027851
-0.011738
-0.003681
-0.003681
-0.003681
0.004375
0.012432
0.012432
-0.011738
-0.003681
0.004375
-0.019795
0.020489
0.012432
-0.011738
0.028545
-0.011738
0.020489
-0.027851
0.004375
0.020489
-0.003681
0.012432
0.020489
0.028545
-0.027851
-0.172871
-0.317890
-0.422627
-0.422627
-0.390400
-0.374287
-0.374287
-0.390400
-0.382343
-0.285664
-0.213154
-0.180927
-0.132588
-0.108418
-0.140644
-0.092304
-0.092304
