2.266945
2.484474
1.356544
0.953712
1.122902
0.832863
0.720070
0.639503
0.534767
0.518654
0.478371
0.421974
0.341408
0.293068
0.236671
0.204445
0.164162
0.156105
0.148048
0.107765
0.091652
0.075539
0.059425
0.051369
-0.029198
-0.029198
-0.021141
-0.021141
-0.021141
-0.061424
-0.037254
-0.053368
-0.013084
-0.045311
-0.029198
-0.045311
-0.021141
-0.037254
-0.037254
-0.029198
-0.037254
-0.029198
-0.013084
-0.029198
-0.021141
0.003029
-0.013084
-0.053368
0.003029
0.091652
0.204445
0.252785
0.285011
0.260841
0.204445
0.220558
0.172218
0.188332
0.107765
0.123878
0.083595
-0.125877
-0.448143
-0.617332
-0.689842
-0.625389
-0.568993
-0.577049
-0.568993
-0.568993
-0.512596
-0.536766
-0.536766
-0.504539
-0.496483
-0.440086
-0.375633
-0.335350
-0.278954
-0.222557
-0.190331
-0.190331
-0.190331
-0.109764
-0.109764
-0.133934
-0.077538
-0.061424
-0.037254
-0.005028
0.011086
-0.005028
-0.013084
0.011086
0.003029
-0.021141
0.011086
0.011086
-0.013084
0.003029
0.011086
0.011086
-0.005028
-0.029198
-0.013084
-0.045311
-0.021141
-0.029198
-0.005028
-0.013084
-0.037254
-0.029198
-0.045311
-0.029198
-0.021141
-0.021141
-0.029198
-0.029198
-0.037254
-0.013084
-0.029198
-0.045311
-0.021141
-0.021141
0.011086
-0.037254
-0.005028
0.172218
0.357521
0.478371
0.494484
0.534767
0.518654
0.454201
0.454201
0.413918
0.454201
0.405861
0.421974
0.373634
0.293068
0.188332
0.188332
0.139992
0.131935
0.099709
0.107765
0.139992
0.067482
-0.005028
-0.005028
-0.005028
-0.053368
-0.013084
-0.037254
-0.005028
-0.029198
-0.013084
-0.021141
0.019142
-0.013084
0.003029
0.003029
0.003029
0.027199
-0.005028
0.019142
-0.013084
-0.013084
-0.005028
0.003029
0.003029
0.003029
0.019142
-0.005028
0.003029
0.027199
-0.005028
0.011086
-0.029198
0.019142
-0.029198
-0.013084
-0.005028
-0.013084
0.027199
0.003029
-0.021141
0.019142
0.043312
0.011086
0.003029
-0.029198
-0.037254
-0.206444
-0.351463
-0.407860
-0.440086
-0.432030
-0.472313
-0.415916
-0.432030
-0.335350
-0.125877
-0.029198
0.043312
0.067482
0.059425
0.115822
0.059425
0.091652
0.115822
0.043312
0.083595
0.059425
0.019142
0.003029
-0.013084
0.019142
0.003029
0.003029
0.011086
-0.005028
0.027199
-0.013084
0.011086
0.003029
0.011086
-0.021141
-0.029198
0.035255
0.003029
-0.005028
0.019142
-0.021141
0.011086
-0.021141
-0.021141
-0.005028
-0.053368
0.003029
-0.029198
-0.005028
0.011086
-0.045311
-0.013084
-0.037254
-0.037254
-0.077538
-0.005028
-0.029198
-0.021141
-0.005028
-0.013084
-0.037254
-0.069481
-0.037254
0.011086
0.083595
0.268898
0.357521
0.365578
0.365578
0.373634
0.381691
0.365578
0.341408
0.309181
0.220558
0.196388
0.123878
0.099709
0.067482
0.075539
0.107765
0.019142
0.027199
0.011086
-0.005028
-0.037254
0.011086
-0.005028
-0.013084
-0.013084
0.003029
0.019142
-0.013084
0.003029
-0.029198
-0.005028
-0.013084
-0.013084
-0.013084
-0.021141
-0.021141
-0.013084
-0.021141
0.027199
0.011086
0.011086
-0.005028
0.019142
0.027199
-0.005028
0.003029
-0.021141
0.003029
0.011086
0.003029
-0.005028
0.011086
0.035255
0.003029
0.011086
0.035255
0.003029
0.043312
0.011086
0.019142
0.043312
0.003029
0.003029
-0.061424
-0.254784
-0.343407
-0.383690
-0.399803
-0.399803
-0.399803
-0.383690
-0.383690
-0.327293
-0.246727
-0.198387
-0.158104
-0.101707
-0.117821
-0.077538
-0.085594
-0.029198
-0.029198
0.019142
0.003029
-0.005028
0.003029
-0.013084
0.019142
-0.005028
-0.021141
0.003029
-0.005028
-0.021141
-0.021141
-0.029198
-0.021141
-0.021141
-0.029198
-0.005028
0.003029
0.139992
0.204445
0.220558
0.236671
0.220558
0.180275
0.148048
0.123878
0.099709
0.059425
-0.005028
0.003029
-0.021141
0.003029
-0.013084
-0.013084
0.027199
-0.037254
-0.021141
-0.021141
-0.013084
-0.005028
-0.029198
-0.037254
-0.037254
-0.061424
-0.021141
0.051369
0.220558
0.293068
0.349464
0.341408
0.373634
0.389748
0.349464
0.357521
0.301125
0.220558
0.164162
0.148048
0.091652
0.067482
0.043312
0.067482
0.027199
0.011086
0.011086
-0.029198
-0.013084
-0.021141
-0.005028
-0.005028
-0.013084
-0.021141
-0.037254
-0.021141
-0.013084
-0.053368
-0.037254
-0.005028
-0.029198
-0.021141
-0.005028
0.019142
0.003029
-0.029198
-0.029198
-0.005028
-0.013084
-0.021141
-0.005028
-0.029198
0.003029
0.011086
0.043312
-0.021141
0.003029
0.035255
-0.045311
0.019142
-0.013084
0.027199
0.019142
0.011086
0.019142
-0.005028
0.027199
0.027199
0.011086
-0.013084
0.003029
-0.053368
-0.230614
-0.319237
-0.335350
-0.359520
-0.375633
-0.375633
-0.375633
-0.343407
-0.295067
-0.246727
-0.166161
-0.141991
-0.133934
-0.077538
-0.109764
-0.053368
-0.053368
-0.021141
-0.037254
0.011086
0.011086
0.003029
0.003029
0.027199
-0.005028
0.035255
0.003029
-0.013084
0.019142
0.035255
0.011086
-0.005028
-0.021141
0.011086
-0.029198
0.003029
-0.005028
-0.013084
0.019142
-0.013084
-0.005028
-0.021141
-0.021141
-0.021141
-0.037254
0.003029
-0.021141
-0.029198
-0.005028
-0.045311
-0.045311
-0.029198
-0.053368
-0.061424
-0.037254
-0.021141
-0.029198
-0.061424
-0.005028
0.123878
0.172218
0.212502
0.180275
0.228615
0.381691
0.462257
0.502541
0.494484
0.454201
0.430031
0.381691
0.349464
0.293068
0.220558
0.164162
0.107765
0.091652
0.051369
0.051369
0.035255
0.011086
0.003029
0.019142
0.003029
-0.021141
-0.013084
-0.045311
-0.037254
-0.037254
-0.013084
-0.021141
-0.045311
-0.029198
-0.037254
-0.037254
-0.005028
-0.005028
-0.029198
-0.029198
-0.005028
0.011086
-0.021141
-0.029198
0.011086
-0.005028
0.003029
-0.045311
-0.005028
-0.005028
-0.013084
0.003029
-0.013084
-0.005028
0.003029
0.003029
0.011086
0.011086
-0.005028
-0.005028
0.011086
-0.005028
0.011086
0.019142
0.035255
0.027199
0.003029
0.011086
-0.069481
-0.246727
-0.359520
-0.367577
-0.415916
-0.399803
-0.399803
-0.391747
-0.375633
-0.303123
-0.246727
-0.206444
-0.141991
-0.141991
-0.101707
-0.077538
-0.101707
-0.045311
-0.021141
-0.029198
-0.021141
-0.013084
-0.013084
0.019142
-0.005028
-0.013084
-0.005028
-0.005028
-0.013084
-0.005028
0.011086
-0.013084
-0.021141
0.003029
-0.013084
0.003029
-0.013084
-0.021141
-0.005028
-0.021141
0.003029
-0.037254
-0.021141
-0.037254
-0.021141
0.011086
0.003029
-0.005028
-0.045311
-0.045311
-0.029198
-0.021141
-0.021141
-0.037254
-0.013084
-0.029198
-0.053368
-0.037254
-0.037254
-0.005028
-0.045311
-0.053368
-0.037254
-0.005028
0.011086
0.172218
0.293068
0.349464
0.365578
0.341408
0.373634
0.349464
0.325294
0.268898
0.196388
0.148048
0.099709
0.123878
0.059425
0.067482
0.043312
-0.005028
-0.013084
-0.037254
-0.045311
-0.037254
-0.085594
-0.053368
-0.069481
0.019142
0.156105
0.220558
0.236671
0.204445
0.156105
0.180275
0.131935
0.107765
0.107765
0.075539
0.027199
0.035255
0.019142
0.011086
-0.021141
-0.005028
-0.005028
0.011086
-0.021141
-0.005028
-0.005028
-0.037254
-0.013084
-0.029198
0.003029
0.027199
0.003029
0.019142
0.011086
0.011086
-0.005028
0.035255
-0.013084
-0.013084
0.003029
-0.021141
-0.005028
-0.005028
-0.061424
-0.230614
-0.335350
-0.375633
-0.391747
-0.383690
-0.407860
-0.399803
-0.375633
-0.287010
-0.214500
-0.174217
-0.150047
-0.109764
-0.117821
-0.101707
-0.069481
-0.045311
-0.013084
0.019142
-0.013084
0.011086
0.043312
-0.021141
0.019142
0.011086
-0.013084
0.011086
0.011086
-0.029198
0.003029
-0.005028
0.027199
-0.005028
-0.013084
0.011086
-0.021141
-0.029198
-0.013084
-0.029198
-0.013084
-0.029198
-0.029198
-0.037254
-0.021141
-0.021141
0.011086
-0.013084
0.027199
-0.037254
-0.037254
-0.021141
-0.029198
0.003029
-0.021141
-0.037254
-0.029198
-0.021141
-0.053368
-0.021141
-0.037254
-0.029198
-0.037254
-0.021141
0.027199
0.236671
0.285011
0.349464
0.389748
0.341408
0.381691
0.341408
0.333351
0.252785
0.196388
0.164162
0.115822
0.083595
0.027199
0.035255
0.035255
0.035255
-0.053368
-0.029198
-0.045311
-0.005028
-0.005028
-0.013084
-0.045311
-0.045311
-0.045311
-0.029198
-0.013084
-0.021141
-0.013084
-0.013084
-0.037254
-0.029198
-0.029198
-0.029198
0.011086
-0.013084
-0.013084
-0.013084
-0.013084
-0.021141
-0.021141
0.011086
-0.005028
-0.021141
-0.029198
-0.037254
-0.013084
-0.013084
0.011086
0.188332
0.228615
0.252785
0.236671
0.220558
0.212502
0.196388
0.156105
0.123878
0.059425
0.051369
0.027199
0.035255
-0.077538
-0.222557
-0.343407
-0.391747
-0.407860
-0.383690
-0.391747
-0.391747
-0.351463
-0.303123
-0.246727
-0.190331
-0.125877
-0.101707
-0.093651
-0.085594
-0.093651
-0.077538
-0.037254
-0.053368
-0.021141
-0.029198
-0.013084
-0.005028
0.011086
0.011086
0.019142
0.019142
-0.021141
-0.005028
0.011086
-0.021141
-0.005028
-0.021141
-0.021141
-0.021141
-0.021141
-0.053368
-0.021141
-0.005028
-0.029198
-0.029198
-0.029198
-0.053368
-0.069481
-0.045311
-0.045311
-0.029198
-0.069481
-0.037254
-0.029198
0.011086
-0.045311
-0.061424
-0.021141
-0.037254
-0.045311
-0.037254
-0.037254
-0.021141
-0.005028
-0.021141
-0.013084
-0.045311
0.043312
0.244728
0.260841
0.341408
0.349464
0.357521
0.373634
0.325294
0.333351
0.236671
0.188332
0.139992
0.115822
0.123878
0.067482
0.043312
0.003029
0.003029
-0.013084
-0.005028
-0.013084
-0.021141
-0.037254
-0.021141
-0.013084
-0.013084
-0.013084
0.043312
-0.021141
-0.013084
-0.029198
-0.021141
0.003029
-0.021141
-0.021141
-0.037254
0.003029
-0.021141
-0.021141
-0.021141
-0.029198
0.003029
0.035255
-0.013084
0.051369
0.011086
-0.005028
0.011086
-0.005028
-0.021141
0.027199
0.027199
-0.013084
0.019142
-0.021141
0.011086
0.019142
0.003029
0.011086
0.035255
0.019142
0.035255
-0.013084
0.003029
-0.101707
-0.262840
-0.351463
-0.383690
-0.407860
-0.407860
-0.415916
-0.415916
-0.391747
-0.270897
-0.198387
-0.214500
-0.190331
-0.150047
-0.101707
0.051369
0.156105
0.204445
0.204445
0.220558
0.212502
0.196388
0.139992
0.083595
0.107765
0.083595
0.059425
0.011086
0.075539
0.051369
0.035255
-0.021141
0.035255
-0.021141
0.003029
-0.037254
-0.013084
-0.037254
-0.013084
-0.037254
-0.029198
0.003029
-0.013084
-0.013084
-0.013084
-0.045311
-0.013084
-0.053368
-0.021141
-0.021141
-0.029198
-0.037254
-0.013084
-0.029198
-0.053368
-0.021141
-0.037254
0.003029
-0.045311
-0.021141
-0.061424
-0.045311
-0.029198
-0.053368
0.075539
0.220558
0.285011
0.349464
0.357521
0.349464
0.349464
0.349464
0.285011
0.228615
0.180275
0.164162
0.099709
0.067482
0.075539
0.059425
0.043312
0.027199
0.003029
-0.005028
-0.029198
-0.061424
-0.029198
-0.037254
-0.021141
-0.013084
-0.005028
0.003029
-0.037254
-0.021141
0.011086
-0.021141
-0.029198
-0.021141
0.003029
-0.013084
-0.013084
-0.021141
-0.005028
-0.005028
-0.021141
-0.013084
-0.013084
-0.005028
-0.005028
0.003029
0.003029
-0.021141
-0.013084
-0.005028
0.011086
0.003029
0.003029
0.027199
-0.021141
0.019142
-0.013084
-0.005028
-0.021141
-0.013084
-0.005028
-0.013084
-0.013084
-0.005028
-0.101707
-0.278954
-0.327293
-0.359520
-0.367577
-0.375633
-0.415916
-0.383690
-0.327293
-0.270897
-0.206444
-0.182274
-0.141991
-0.101707
-0.093651
-0.053368
-0.093651
-0.037254
0.003029
0.043312
-0.037254
0.011086
-0.013084
0.011086
-0.013084
0.027199
0.019142
-0.021141
-0.021141
0.011086
-0.029198
0.011086
-0.045311
-0.029198
-0.005028
-0.029198
-0.029198
-0.021141
0.115822
0.212502
0.228615
0.212502
0.164162
0.180275
0.172218
0.139992
0.083595
0.043312
-0.013084
-0.021141
-0.037254
-0.037254
-0.045311
-0.029198
-0.045311
-0.061424
-0.037254
-0.037254
-0.053368
-0.013084
-0.037254
-0.061424
-0.005028
-0.037254
0.099709
0.276955
0.317238
0.365578
0.365578
0.373634
0.333351
0.341408
0.317238
0.228615
0.188332
0.148048
0.115822
0.067482
0.075539
0.011086
0.035255
0.003029
-0.021141
-0.037254
-0.045311
-0.013084
-0.037254
-0.029198
-0.053368
-0.061424
-0.029198
-0.053368
-0.021141
-0.037254
0.003029
-0.013084
-0.021141
-0.013084
-0.005028
0.003029
-0.029198
-0.005028
-0.013084
-0.029198
0.003029
-0.013084
-0.021141
-0.005028
0.011086
0.043312
-0.029198
-0.013084
-0.005028
0.011086
0.003029
-0.021141
0.043312
0.035255
0.035255
0.003029
0.003029
0.011086
0.003029
-0.013084
-0.013084
0.019142
0.011086
-0.045311
-0.133934
-0.270897
-0.343407
-0.383690
-0.343407
-0.415916
-0.391747
-0.415916
-0.335350
-0.222557
-0.190331
-0.174217
-0.125877
-0.125877
-0.093651
-0.093651
-0.053368
-0.013084
-0.037254
-0.013084
0.003029
0.003029
-0.005028
0.019142
-0.013084
0.011086
0.011086
-0.013084
-0.037254
-0.037254
0.003029
0.003029
0.003029
-0.005028
0.011086
-0.021141
-0.013084
-0.013084
0.003029
-0.005028
-0.021141
-0.013084
0.011086
-0.045311
-0.037254
-0.013084
-0.029198
-0.013084
-0.005028
-0.069481
-0.045311
-0.053368
-0.029198
-0.053368
-0.021141
-0.037254
-0.077538
-0.021141
-0.077538
-0.069481
-0.061424
-0.045311
-0.053368
-0.053368
0.091652
0.260841
0.309181
0.405861
0.558937
0.607277
0.615334
0.607277
0.526711
0.373634
0.317238
0.212502
0.180275
0.107765
0.083595
0.051369
0.051369
0.027199
-0.021141
-0.013084
-0.029198
-0.013084
-0.053368
-0.021141
-0.029198
-0.021141
-0.013084
-0.061424
-0.021141
-0.021141
-0.021141
-0.005028
-0.013084
0.011086
-0.021141
-0.021141
-0.021141
0.011086
-0.005028
-0.021141
-0.005028
-0.045311
0.011086
-0.005028
0.019142
-0.005028
-0.013084
-0.013084
-0.005028
-0.005028
-0.005028
-0.013084
0.003029
-0.029198
0.011086
0.027199
0.011086
0.011086
0.019142
0.051369
0.019142
-0.013084
0.011086
0.027199
-0.150047
-0.303123
-0.351463
-0.383690
-0.432030
-0.399803
-0.383690
-0.391747
-0.278954
-0.222557
-0.206444
-0.166161
-0.141991
-0.109764
-0.069481
-0.101707
-0.037254
-0.037254
-0.005028
0.011086
-0.013084
-0.021141
-0.029198
-0.029198
-0.005028
-0.021141
-0.013084
-0.013084
-0.037254
-0.005028
-0.005028
0.011086
0.027199
0.011086
-0.013084
-0.013084
-0.037254
-0.029198
-0.029198
-0.013084
-0.005028
-0.029198
-0.005028
-0.005028
-0.021141
-0.013084
-0.021141
-0.037254
-0.013084
-0.061424
-0.013084
-0.053368
-0.021141
-0.045311
-0.029198
-0.029198
-0.061424
-0.037254
-0.053368
-0.045311
-0.021141
-0.029198
-0.021141
-0.013084
0.131935
0.301125
0.325294
0.357521
0.381691
0.373634
0.349464
0.341408
0.268898
0.204445
0.156105
0.139992
0.115822
0.067482
0.075539
0.059425
0.019142
-0.029198
-0.005028
-0.021141
0.003029
-0.045311
-0.045311
-0.069481
-0.053368
-0.045311
-0.029198
-0.069481
-0.021141
0.139992
0.220558
0.236671
0.228615
0.188332
0.156105
0.148048
0.139992
0.131935
0.115822
0.059425
0.035255
0.011086
0.011086
0.011086
0.003029
-0.005028
0.035255
-0.029198
0.027199
-0.005028
0.011086
-0.013084
0.003029
-0.013084
0.003029
-0.013084
-0.005028
0.003029
-0.005028
-0.021141
-0.021141
-0.021141
0.003029
-0.029198
-0.166161
-0.295067
-0.391747
-0.391747
-0.399803
-0.407860
-0.375633
-0.343407
-0.303123
-0.254784
-0.166161
-0.174217
-0.133934
-0.093651
-0.085594
-0.109764
-0.021141
0.003029
0.027199
0.011086
0.003029
-0.005028
0.019142
0.035255
-0.005028
0.011086
-0.013084
-0.013084
-0.013084
0.019142
-0.005028
0.003029
-0.005028
-0.005028
-0.013084
-0.021141
-0.037254
0.003029
-0.045311
-0.021141
-0.037254
-0.013084
-0.037254
-0.005028
-0.045311
-0.029198
-0.005028
-0.013084
-0.037254
0.003029
-0.029198
0.003029
-0.037254
-0.021141
-0.013084
-0.045311
-0.021141
-0.053368
-0.037254
-0.029198
-0.061424
-0.037254
-0.021141
-0.013084
0.139992
0.276955
0.341408
0.389748
0.373634
0.333351
0.333351
0.325294
0.260841
0.196388
0.156105
0.148048
0.059425
0.099709
0.067482
0.067482
0.035255
0.019142
-0.005028
-0.045311
-0.021141
-0.029198
-0.069481
-0.005028
-0.021141
-0.037254
-0.045311
-0.029198
-0.021141
-0.045311
-0.053368
-0.053368
-0.013084
-0.021141
-0.021141
-0.013084
0.003029
0.011086
0.011086
-0.021141
-0.021141
-0.005028
-0.021141
-0.021141
-0.021141
-0.037254
-0.021141
-0.005028
0.011086
0.011086
-0.037254
0.019142
-0.005028
-0.013084
-0.029198
0.003029
-0.005028
0.123878
0.236671
0.244728
0.228615
0.244728
0.204445
0.164162
-0.021141
-0.182274
-0.246727
-0.270897
-0.246727
-0.343407
-0.359520
-0.311180
-0.319237
-0.230614
-0.206444
-0.166161
-0.150047
-0.101707
-0.045311
-0.093651
-0.077538
-0.037254
0.003029
0.035255
0.011086
-0.005028
0.019142
-0.013084
0.011086
-0.013084
-0.037254
0.003029
-0.021141
-0.021141
-0.029198
-0.013084
0.027199
-0.013084
-0.021141
-0.021141
-0.013084
-0.021141
-0.029198
0.003029
0.003029
-0.037254
-0.013084
-0.029198
-0.037254
-0.045311
-0.021141
-0.021141
-0.029198
-0.045311
-0.037254
-0.069481
-0.029198
-0.021141
-0.013084
-0.021141
-0.013084
-0.053368
-0.005028
-0.037254
-0.013084
-0.021141
0.003029
0.019142
0.148048
0.301125
0.341408
0.349464
0.381691
0.405861
0.381691
0.341408
0.260841
0.196388
0.164162
0.107765
0.131935
0.099709
0.083595
0.067482
0.059425
0.019142
0.003029
-0.029198
-0.053368
-0.037254
-0.053368
-0.029198
-0.053368
-0.021141
-0.037254
-0.021141
0.011086
-0.013084
-0.021141
-0.037254
-0.005028
-0.029198
-0.013084
0.011086
-0.005028
-0.021141
-0.005028
0.027199
0.003029
0.027199
0.011086
0.019142
-0.013084
-0.021141
0.011086
-0.021141
-0.021141
-0.013084
0.003029
-0.037254
0.003029
-0.021141
0.011086
-0.021141
-0.013084
0.003029
0.003029
0.003029
-0.021141
0.011086
0.019142
-0.029198
-0.190331
-0.335350
-0.399803
-0.383690
-0.391747
-0.415916
-0.415916
-0.351463
-0.295067
-0.238670
-0.190331
-0.166161
-0.133934
-0.117821
-0.101707
-0.077538
0.043312
0.164162
0.204445
0.188332
0.123878
0.083595
0.075539
0.075539
0.051369
-0.005028
0.027199
0.003029
0.011086
-0.021141
-0.037254
0.011086
-0.037254
-0.005028
-0.021141
-0.021141
0.011086
-0.037254
-0.005028
0.003029
-0.013084
-0.029198
-0.013084
-0.021141
-0.045311
-0.037254
0.003029
-0.037254
-0.029198
-0.029198
-0.053368
-0.045311
-0.045311
-0.037254
-0.053368
-0.005028
-0.045311
-0.037254
-0.037254
-0.021141
0.011086
-0.037254
-0.045311
0.019142
0.188332
0.293068
0.325294
0.341408
0.357521
0.373634
0.365578
0.293068
0.244728
0.204445
0.156105
0.123878
0.099709
0.051369
0.067482
0.059425
0.011086
-0.013084
-0.029198
-0.013084
-0.037254
-0.029198
-0.029198
-0.021141
-0.045311
-0.037254
-0.045311
-0.069481
-0.037254
-0.021141
-0.013084
-0.037254
-0.021141
-0.013084
-0.021141
-0.029198
-0.037254
-0.013084
-0.013084
0.003029
-0.005028
0.019142
0.011086
0.003029
-0.005028
-0.029198
-0.013084
0.003029
0.019142
0.011086
-0.013084
0.011086
0.003029
0.011086
0.003029
0.011086
-0.013084
-0.013084
-0.029198
0.011086
0.019142
-0.005028
-0.005028
-0.053368
-0.206444
-0.367577
-0.351463
-0.367577
-0.375633
-0.399803
-0.399803
-0.359520
-0.319237
-0.246727
-0.214500
-0.166161
-0.101707
-0.101707
-0.085594
-0.045311
-0.061424
-0.061424
-0.029198
0.019142
0.019142
0.027199
-0.005028
-0.005028
0.027199
0.003029
-0.013084
0.003029
0.003029
-0.029198
-0.021141
-0.013084
-0.029198
0.019142
-0.061424
-0.045311
-0.053368
-0.037254
-0.021141
0.003029
-0.021141
-0.005028
-0.037254
-0.021141
-0.021141
0.051369
0.115822
0.204445
0.204445
0.196388
0.180275
0.131935
0.083595
0.059425
0.027199
0.019142
-0.005028
0.003029
-0.037254
-0.037254
-0.037254
-0.029198
-0.013084
0.051369
0.180275
0.301125
0.373634
0.357521
0.325294
0.373634
0.309181
0.301125
0.236671
0.220558
0.148048
0.123878
0.083595
0.075539
0.059425
0.043312
0.003029
-0.045311
-0.005028
-0.029198
-0.029198
-0.021141
-0.013084
-0.013084
-0.037254
-0.013084
-0.005028
-0.021141
-0.021141
-0.045311
-0.005028
-0.029198
-0.037254
0.003029
-0.013084
0.011086
0.003029
-0.029198
-0.021141
-0.021141
-0.037254
0.027199
0.019142
0.019142
0.003029
-0.005028
-0.013084
0.003029
-0.013084
0.003029
-0.005028
-0.005028
-0.005028
0.003029
-0.021141
0.003029
0.011086
-0.005028
-0.021141
0.043312
-0.005028
-0.021141
0.027199
-0.101707
-0.214500
-0.359520
-0.383690
-0.359520
-0.391747
-0.351463
-0.375633
-0.383690
-0.278954
-0.230614
-0.222557
-0.125877
-0.141991
-0.109764
-0.069481
-0.069481
-0.061424
-0.029198
0.011086
0.011086
-0.013084
-0.029198
0.003029
0.051369
0.035255
-0.005028
0.019142
-0.005028
-0.013084
-0.029198
-0.029198
0.003029
-0.037254
-0.005028
-0.005028
-0.037254
-0.013084
0.027199
-0.021141
-0.021141
0.003029
-0.021141
-0.013084
-0.037254
-0.021141
-0.029198
-0.029198
-0.013084
-0.029198
-0.045311
-0.045311
-0.061424
-0.061424
-0.021141
-0.037254
-0.021141
-0.029198
-0.013084
-0.037254
-0.037254
-0.013084
-0.069481
-0.037254
0.075539
0.188332
0.252785
0.317238
0.325294
0.357521
0.317238
0.373634
0.438087
0.470314
0.421974
0.341408
0.301125
0.220558
0.131935
0.115822
0.051369
0.035255
-0.013084
-0.005028
-0.029198
-0.053368
-0.029198
-0.021141
-0.045311
-0.037254
-0.021141
0.003029
-0.029198
-0.029198
-0.029198
-0.037254
-0.037254
-0.029198
-0.045311
-0.013084
0.011086
-0.021141
-0.029198
-0.045311
-0.005028
-0.005028
-0.013084
-0.005028
0.003029
0.027199
-0.005028
0.027199
0.003029
0.003029
-0.005028
0.003029
0.019142
-0.005028
0.019142
-0.005028
0.027199
0.003029
0.003029
0.003029
0.011086
-0.005028
-0.013084
0.027199
-0.093651
-0.214500
-0.351463
-0.375633
-0.399803
-0.375633
-0.407860
-0.383690
-0.343407
-0.295067
-0.222557
-0.214500
-0.141991
-0.125877
-0.109764
-0.093651
-0.045311
-0.069481
-0.005028
0.003029
-0.045311
0.011086
0.027199
0.003029
0.011086
0.011086
-0.005028
0.011086
0.003029
-0.013084
-0.021141
-0.021141
-0.021141
0.003029
-0.005028
0.011086
-0.029198
-0.029198
-0.005028
-0.045311
-0.013084
-0.037254
-0.029198
-0.053368
-0.021141
-0.013084
-0.013084
-0.029198
-0.021141
-0.053368
-0.037254
-0.029198
-0.045311
-0.021141
-0.037254
-0.013084
-0.029198
0.003029
-0.013084
-0.037254
-0.045311
-0.037254
-0.021141
-0.005028
0.067482
0.212502
0.309181
0.349464
0.357521
0.341408
0.397804
0.349464
0.276955
0.228615
0.188332
0.139992
0.107765
0.091652
0.091652
0.027199
0.051369
0.003029
-0.021141
-0.029198
-0.037254
-0.029198
-0.013084
-0.037254
-0.045311
-0.037254
-0.037254
-0.013084
-0.053368
-0.037254
-0.069481
-0.029198
-0.013084
-0.053368
-0.029198
-0.021141
0.083595
0.164162
0.228615
0.212502
0.276955
0.188332
0.107765
0.083595
0.035255
0.027199
-0.005028
-0.005028
0.043312
0.019142
0.011086
-0.013084
-0.005028
0.003029
0.027199
0.019142
0.011086
0.027199
0.019142
0.003029
0.011086
0.003029
-0.013084
0.011086
-0.117821
-0.262840
-0.319237
-0.335350
-0.391747
-0.399803
-0.383690
-0.359520
-0.311180
-0.278954
-0.222557
-0.158104
-0.166161
-0.077538
-0.093651
-0.077538
-0.069481
-0.045311
-0.021141
-0.005028
0.027199
0.011086
0.011086
0.003029
0.003029
-0.005028
-0.013084
-0.029198
0.003029
-0.013084
-0.021141
0.003029
-0.005028
0.027199
-0.005028
-0.005028
-0.037254
-0.021141
-0.005028
-0.021141
-0.013084
-0.013084
-0.021141
-0.005028
-0.045311
-0.005028
-0.037254
-0.013084
-0.037254
-0.037254
-0.021141
0.003029
-0.037254
-0.053368
0.019142
-0.053368
-0.053368
-0.045311
-0.005028
0.027199
-0.045311
-0.053368
-0.021141
-0.053368
0.067482
0.220558
0.317238
0.325294
0.341408
0.357521
0.341408
0.341408
0.317238
0.228615
0.188332
0.115822
0.099709
0.099709
0.059425
0.067482
0.035255
-0.005028
0.019142
-0.013084
-0.045311
-0.021141
0.003029
-0.045311
-0.029198
-0.029198
-0.013084
-0.013084
-0.013084
-0.029198
-0.005028
-0.005028
0.003029
-0.029198
0.011086
-0.013084
0.003029
-0.013084
0.011086
-0.037254
-0.005028
-0.005028
-0.029198
-0.013084
-0.013084
0.027199
-0.005028
-0.005028
-0.021141
0.011086
-0.013084
0.003029
0.003029
-0.005028
0.027199
0.003029
0.003029
-0.013084
-0.013084
0.131935
0.212502
0.236671
0.220558
0.220558
0.075539
-0.141991
-0.270897
-0.335350
-0.367577
-0.367577
-0.351463
-0.359520
-0.335350
-0.262840
-0.158104
-0.174217
-0.166161
-0.133934
-0.093651
-0.101707
-0.045311
-0.053368
-0.021141
0.003029
-0.005028
0.003029
0.027199
0.011086
-0.005028
-0.005028
-0.029198
-0.021141
-0.029198
0.011086
0.003029
-0.029198
0.011086
0.003029
-0.029198
-0.061424
0.011086
-0.021141
-0.013084
0.003029
0.019142
-0.021141
-0.005028
-0.005028
-0.021141
-0.013084
-0.013084
-0.005028
-0.021141
-0.061424
-0.021141
-0.045311
-0.045311
-0.045311
-0.029198
0.003029
-0.021141
0.019142
-0.021141
-0.045311
-0.021141
-0.021141
-0.053368
-0.045311
0.083595
0.244728
0.341408
0.381691
0.357521
0.373634
0.357521
0.349464
0.252785
0.244728
0.180275
0.172218
0.107765
0.051369
0.083595
0.027199
0.051369
0.075539
0.003029
0.003029
-0.005028
-0.005028
-0.021141
-0.013084
-0.021141
-0.005028
-0.005028
-0.029198
-0.021141
-0.029198
-0.029198
-0.005028
-0.029198
0.003029
-0.013084
-0.013084
-0.029198
0.011086
-0.005028
0.003029
0.019142
0.027199
0.003029
0.003029
0.019142
0.003029
0.019142
0.011086
0.003029
0.019142
0.027199
0.019142
0.003029
-0.005028
-0.013084
-0.005028
0.003029
-0.013084
0.011086
-0.021141
0.011086
0.011086
-0.021141
0.011086
-0.125877
-0.311180
-0.343407
-0.383690
-0.367577
-0.375633
-0.407860
-0.391747
-0.311180
-0.222557
-0.238670
-0.182274
-0.133934
-0.077538
-0.101707
-0.093651
-0.045311
-0.037254
-0.005028
-0.029198
-0.021141
-0.013084
-0.005028
-0.021141
0.019142
0.180275
0.196388
0.212502
0.196388
0.212502
0.139992
0.099709
0.043312
0.059425
0.035255
-0.005028
0.027199
0.011086
-0.013084
0.003029
-0.029198
-0.029198
-0.045311
-0.021141
-0.037254
-0.013084
-0.029198
-0.013084
-0.029198
-0.029198
-0.021141
0.003029
-0.013084
-0.037254
-0.013084
-0.045311
-0.029198
-0.037254
-0.053368
-0.037254
-0.029198
-0.037254
-0.061424
0.003029
0.115822
0.276955
0.349464
0.349464
0.381691
0.357521
0.349464
0.333351
0.301125
0.212502
0.204445
0.139992
0.115822
0.091652
0.059425
0.051369
0.027199
0.011086
-0.021141
-0.029198
-0.005028
-0.037254
-0.029198
-0.029198
-0.029198
-0.005028
-0.029198
-0.013084
-0.021141
-0.021141
-0.037254
-0.029198
-0.021141
-0.013084
0.019142
-0.053368
0.003029
0.019142
-0.037254
-0.021141
-0.013084
0.019142
-0.005028
-0.029198
0.019142
-0.029198
-0.021141
0.019142
-0.005028
0.003029
-0.029198
-0.005028
-0.013084
0.035255
-0.013084
0.011086
-0.029198
0.019142
0.011086
0.035255
0.003029
-0.021141
0.011086
0.027199
-0.150047
-0.295067
-0.367577
-0.391747
-0.415916
-0.367577
-0.375633
-0.375633
-0.351463
-0.254784
-0.254784
-0.150047
-0.133934
-0.117821
-0.077538
-0.061424
-0.053368
-0.021141
-0.021141
-0.037254
0.003029
0.003029
-0.005028
-0.021141
0.003029
0.003029
-0.013084
0.043312
-0.005028
-0.029198
-0.005028
0.011086
-0.029198
-0.021141
-0.037254
-0.005028
-0.029198
-0.029198
-0.021141
-0.053368
-0.005028
-0.045311
-0.021141
-0.053368
-0.029198
-0.045311
-0.029198
-0.061424
-0.053368
0.003029
0.067482
0.220558
0.204445
0.204445
0.148048
0.083595
0.123878
0.083595
0.067482
0.043312
-0.005028
0.019142
-0.005028
0.011086
0.123878
0.228615
0.333351
0.349464
0.341408
0.341408
0.357521
0.333351
0.276955
0.220558
0.164162
0.139992
0.091652
0.107765
0.035255
0.043312
0.059425
0.027199
-0.021141
-0.037254
0.003029
-0.037254
-0.013084
0.011086
-0.045311
-0.045311
-0.037254
-0.037254
-0.061424
-0.037254
-0.037254
-0.013084
-0.021141
0.003029
-0.005028
-0.005028
-0.005028
-0.029198
-0.013084
-0.005028
-0.021141
-0.013084
-0.005028
-0.005028
0.003029
-0.013084
-0.013084
0.003029
0.003029
0.011086
0.003029
0.003029
0.011086
0.027199
0.019142
0.003029
-0.005028
0.019142
0.003029
-0.013084
-0.005028
-0.013084
0.011086
-0.053368
-0.141991
-0.278954
-0.359520
-0.359520
-0.359520
-0.383690
-0.359520
-0.383690
-0.311180
-0.254784
-0.190331
-0.182274
-0.125877
-0.109764
-0.077538
-0.037254
-0.069481
-0.021141
0.019142
-0.005028
0.019142
-0.013084
-0.005028
-0.013084
-0.021141
-0.013084
-0.013084
-0.013084
-0.005028
-0.005028
0.027199
0.003029
-0.005028
-0.005028
-0.021141
-0.029198
-0.005028
-0.045311
-0.037254
-0.013084
-0.045311
-0.045311
-0.021141
-0.061424
-0.053368
0.003029
-0.053368
-0.045311
-0.013084
-0.053368
-0.037254
-0.045311
-0.029198
-0.029198
-0.037254
-0.045311
-0.053368
-0.013084
-0.021141
-0.037254
-0.061424
-0.029198
-0.037254
-0.013084
0.148048
0.260841
0.293068
0.349464
0.341408
0.325294
0.357521
0.309181
0.252785
0.196388
0.164162
0.115822
0.091652
0.051369
0.164162
0.244728
0.228615
0.244728
0.196388
0.172218
0.148048
0.099709
0.067482
0.035255
0.035255
0.003029
-0.029198
-0.021141
-0.005028
0.003029
-0.013084
-0.005028
0.003029
-0.013084
-0.005028
-0.005028
-0.021141
-0.013084
0.019142
-0.005028
-0.005028
0.003029
-0.021141
-0.013084
-0.021141
-0.005028
-0.037254
-0.021141
0.019142
-0.005028
-0.005028
0.003029
0.019142
-0.005028
0.003029
0.027199
0.003029
0.011086
-0.013084
-0.029198
-0.005028
0.003029
-0.013084
-0.005028
-0.182274
-0.303123
-0.327293
-0.367577
-0.375633
-0.383690
-0.407860
-0.351463
-0.311180
-0.254784
-0.206444
-0.158104
-0.109764
-0.069481
-0.085594
-0.069481
-0.053368
-0.053368
-0.005028
-0.013084
-0.021141
-0.013084
0.003029
-0.005028
-0.013084
-0.005028
0.003029
0.011086
0.019142
-0.005028
0.019142
-0.013084
-0.005028
0.019142
0.003029
-0.005028
-0.005028
-0.013084
-0.029198
-0.005028
-0.013084
-0.013084
-0.013084
-0.021141
-0.053368
0.003029
-0.037254
-0.029198
-0.053368
-0.045311
0.003029
-0.029198
-0.005028
-0.005028
-0.013084
-0.045311
-0.021141
-0.037254
-0.013084
-0.021141
-0.013084
-0.045311
-0.029198
