3.010966
3.212382
1.584941
0.827617
0.368388
0.207255
0.094462
0.038066
0.005839
-0.010274
0.005839
-0.002217
-0.034444
0.005839
-0.018331
0.005839
0.030009
-0.002217
-0.018331
0.005839
-0.010274
0.021953
-0.010274
0.021953
-0.018331
0.005839
0.005839
-0.002217
-0.018331
-0.010274
-0.034444
-0.002217
-0.002217
0.013896
-0.018331
-0.034444
-0.155293
-0.292256
-0.316426
-0.300313
-0.316426
-0.356709
-0.380879
-0.332540
-0.356709
-0.396993
-0.437276
-0.388936
-0.332540
-0.356709
-0.260030
-0.268086
-0.235860
-0.195577
-0.155293
-0.179463
-0.147237
-0.171407
-0.171407
-0.139180
-0.123067
-0.098897
-0.106954
-0.082784
-0.106954
-0.131124
-0.123067
-0.171407
-0.163350
-0.179463
-0.243916
-0.235860
-0.243916
-0.260030
-0.243916
-0.292256
-0.251973
-0.251973
-0.276143
-0.251973
-0.292256
-0.276143
-0.251973
-0.227803
-0.251973
-0.211690
-0.195577
-0.171407
-0.187520
-0.203633
-0.171407
-0.187520
-0.139180
-0.082784
-0.131124
-0.147237
-0.074727
-0.034444
0.231425
0.529521
0.602031
0.658427
0.610087
0.569804
0.561748
0.553691
0.545634
0.497294
0.473125
0.465068
0.465068
0.448955
0.368388
0.328105
0.320048
0.255595
0.223369
0.183085
0.175029
0.191142
0.175029
0.150859
0.102519
0.021953
0.021953
-0.034444
-0.018331
-0.050557
0.005839
-0.034444
-0.002217
0.013896
-0.026387
-0.018331
-0.002217
-0.026387
-0.018331
-0.034444
-0.010274
-0.002217
-0.002217
-0.010274
-0.026387
-0.026387
-0.010274
-0.002217
-0.034444
-0.018331
-0.002217
0.021953
-0.058614
-0.002217
0.013896
-0.002217
0.021953
-0.018331
0.005839
-0.026387
-0.002217
-0.002217
0.038066
-0.002217
-0.010274
-0.098897
-0.364766
-0.525899
-0.574239
-0.574239
-0.550069
-0.550069
-0.525899
-0.477559
-0.461446
-0.445332
-0.477559
-0.413106
-0.372823
-0.308370
-0.260030
-0.235860
-0.179463
-0.163350
-0.147237
-0.098897
-0.066670
-0.058614
-0.042500
-0.074727
-0.026387
-0.026387
0.013896
-0.002217
-0.034444
0.078349
0.207255
0.207255
0.231425
0.231425
0.158916
0.150859
0.094462
0.094462
0.086406
0.070293
0.013896
-0.026387
-0.058614
-0.066670
-0.034444
-0.058614
-0.058614
-0.058614
-0.090840
-0.098897
-0.082784
-0.098897
-0.074727
-0.098897
-0.090840
-0.074727
-0.066670
-0.082784
-0.090840
-0.026387
-0.074727
-0.082784
-0.050557
-0.058614
-0.050557
0.021953
0.158916
0.311992
0.376445
0.432841
0.416728
0.416728
0.408671
0.392558
0.376445
0.352275
0.311992
0.255595
0.223369
0.158916
0.134746
0.110576
0.086406
0.062236
0.030009
0.038066
0.030009
-0.010274
-0.010274
-0.018331
-0.026387
-0.002217
-0.018331
-0.042500
-0.026387
-0.026387
-0.018331
-0.050557
-0.034444
-0.002217
-0.002217
-0.018331
-0.034444
-0.018331
-0.026387
0.021953
-0.010274
0.013896
-0.010274
-0.002217
-0.002217
-0.034444
-0.018331
-0.002217
-0.002217
-0.010274
0.030009
-0.018331
-0.026387
0.005839
0.005839
0.005839
0.005839
-0.010274
0.013896
0.013896
0.013896
-0.010274
0.038066
-0.018331
-0.195577
-0.324483
-0.461446
-0.461446
-0.461446
-0.388936
-0.388936
-0.396993
-0.421163
-0.380879
-0.308370
-0.276143
-0.211690
-0.171407
-0.155293
-0.090840
-0.123067
-0.098897
-0.074727
-0.042500
-0.018331
0.021953
-0.010274
-0.018331
0.046123
0.013896
-0.010274
-0.018331
-0.018331
-0.018331
-0.010274
-0.002217
-0.010274
-0.026387
-0.002217
-0.034444
-0.018331
-0.058614
-0.034444
-0.018331
-0.066670
-0.034444
-0.058614
-0.042500
-0.058614
-0.050557
-0.026387
-0.042500
-0.090840
-0.018331
0.013896
0.158916
0.191142
0.183085
0.199199
0.134746
0.118632
0.110576
0.046123
0.094462
-0.010274
-0.026387
-0.042500
-0.018331
0.110576
0.271709
0.376445
0.384501
0.408671
0.384501
0.432841
0.352275
0.384501
0.368388
0.303935
0.215312
0.191142
0.118632
0.126689
0.078349
0.070293
0.046123
0.030009
0.013896
-0.002217
-0.050557
-0.034444
-0.042500
-0.058614
-0.042500
-0.042500
-0.042500
-0.010274
-0.050557
0.005839
-0.034444
-0.018331
-0.026387
-0.010274
0.005839
-0.034444
-0.010274
-0.026387
-0.042500
-0.010274
-0.010274
-0.034444
-0.010274
-0.034444
-0.034444
-0.026387
0.013896
-0.010274
-0.010274
-0.026387
-0.010274
-0.010274
-0.018331
-0.018331
0.038066
-0.010274
0.013896
0.005839
0.030009
-0.002217
0.021953
0.005839
-0.002217
-0.090840
-0.268086
-0.388936
-0.405049
-0.461446
-0.396993
-0.421163
-0.405049
-0.364766
-0.388936
-0.276143
-0.243916
-0.211690
-0.163350
-0.115010
-0.106954
-0.090840
-0.098897
-0.066670
-0.042500
-0.018331
-0.018331
0.005839
-0.018331
-0.002217
0.013896
0.005839
0.005839
-0.018331
-0.018331
-0.010274
-0.026387
-0.018331
-0.050557
-0.018331
-0.010274
-0.010274
0.013896
-0.042500
-0.010274
-0.018331
-0.058614
-0.058614
-0.042500
-0.034444
-0.042500
-0.026387
-0.042500
-0.034444
-0.050557
-0.042500
-0.042500
-0.058614
-0.042500
-0.042500
-0.058614
-0.010274
-0.018331
-0.058614
-0.058614
-0.018331
-0.034444
-0.026387
-0.042500
0.013896
0.231425
0.344218
0.408671
0.400615
0.360332
0.368388
0.352275
0.360332
0.311992
0.263652
0.223369
0.110576
0.118632
0.086406
0.054179
0.126689
0.263652
0.279765
0.255595
0.207255
0.191142
0.158916
0.134746
0.118632
0.070293
0.021953
0.005839
-0.026387
0.005839
-0.018331
0.005839
-0.018331
-0.018331
-0.018331
-0.034444
-0.042500
-0.002217
-0.018331
-0.042500
0.005839
-0.002217
-0.002217
-0.010274
-0.042500
-0.002217
-0.010274
-0.010274
-0.010274
0.038066
0.030009
-0.034444
0.005839
0.046123
0.013896
0.005839
-0.002217
-0.026387
-0.002217
-0.010274
-0.010274
-0.010274
0.013896
0.030009
-0.058614
-0.243916
-0.356709
-0.453389
-0.413106
-0.388936
-0.380879
-0.380879
-0.388936
-0.356709
-0.292256
-0.243916
-0.187520
-0.171407
-0.147237
-0.131124
-0.098897
-0.090840
-0.034444
-0.042500
-0.034444
-0.002217
0.021953
0.038066
-0.002217
0.005839
0.005839
-0.026387
0.013896
-0.018331
-0.002217
-0.002217
-0.002217
-0.010274
-0.010274
-0.042500
0.005839
-0.010274
-0.018331
-0.042500
-0.042500
-0.058614
-0.034444
-0.034444
-0.034444
-0.042500
-0.050557
-0.026387
-0.034444
-0.066670
-0.026387
-0.026387
-0.018331
0.005839
-0.034444
-0.042500
-0.058614
-0.034444
-0.050557
-0.018331
-0.026387
-0.026387
-0.018331
-0.042500
0.030009
0.223369
0.360332
0.376445
0.400615
0.392558
0.352275
0.352275
0.368388
0.328105
0.263652
0.207255
0.166972
0.142802
0.142802
0.086406
0.062236
0.054179
0.038066
0.013896
-0.034444
0.013896
-0.042500
-0.050557
-0.026387
-0.066670
-0.010274
-0.026387
-0.010274
-0.026387
-0.026387
-0.018331
-0.042500
-0.034444
-0.042500
-0.002217
-0.026387
-0.058614
-0.002217
-0.026387
-0.002217
0.030009
0.183085
0.223369
0.231425
0.207255
0.199199
0.191142
0.175029
0.134746
0.110576
0.118632
0.054179
0.038066
0.005839
-0.002217
0.013896
0.005839
-0.002217
0.005839
0.030009
-0.002217
-0.018331
-0.018331
-0.074727
-0.227803
-0.356709
-0.445332
-0.413106
-0.413106
-0.405049
-0.405049
-0.364766
-0.356709
-0.292256
-0.251973
-0.163350
-0.171407
-0.098897
-0.058614
-0.050557
-0.090840
-0.058614
-0.050557
-0.034444
-0.002217
0.005839
-0.010274
-0.018331
0.005839
-0.002217
-0.018331
-0.018331
-0.018331
0.013896
0.078349
-0.026387
0.030009
-0.010274
-0.026387
0.005839
-0.002217
-0.018331
-0.042500
-0.042500
-0.018331
-0.002217
-0.042500
-0.042500
-0.018331
-0.050557
-0.026387
-0.026387
0.005839
-0.034444
-0.066670
-0.034444
-0.042500
-0.042500
-0.042500
-0.050557
-0.018331
-0.042500
-0.042500
-0.050557
0.005839
-0.066670
-0.026387
0.054179
0.231425
0.344218
0.384501
0.424785
0.416728
0.376445
0.384501
0.384501
0.311992
0.287822
0.247539
0.175029
0.134746
0.134746
0.094462
0.070293
0.086406
0.021953
0.013896
-0.018331
0.013896
-0.042500
-0.010274
0.005839
-0.034444
-0.002217
-0.018331
-0.002217
-0.018331
-0.002217
-0.042500
-0.018331
-0.010274
-0.026387
-0.042500
-0.010274
0.005839
-0.010274
-0.010274
-0.018331
-0.026387
-0.050557
0.005839
-0.002217
-0.010274
0.062236
-0.010274
0.005839
-0.002217
0.005839
0.038066
0.005839
-0.010274
-0.018331
-0.018331
0.013896
0.021953
-0.018331
-0.010274
-0.010274
0.013896
0.005839
-0.026387
-0.074727
-0.260030
-0.380879
-0.445332
-0.469502
-0.372823
-0.227803
-0.155293
-0.139180
-0.098897
-0.082784
-0.050557
-0.002217
-0.026387
-0.042500
-0.050557
-0.042500
-0.034444
-0.018331
-0.018331
-0.018331
-0.018331
-0.002217
-0.010274
-0.010274
0.013896
-0.010274
0.005839
-0.002217
-0.010274
-0.002217
-0.010274
0.013896
-0.010274
-0.018331
-0.026387
-0.018331
-0.010274
-0.002217
-0.002217
-0.010274
-0.018331
0.005839
-0.034444
-0.018331
-0.050557
-0.018331
-0.034444
-0.026387
-0.034444
-0.026387
-0.050557
-0.058614
-0.034444
-0.050557
-0.042500
-0.018331
-0.034444
-0.010274
-0.034444
-0.050557
0.005839
-0.010274
-0.018331
0.013896
0.215312
0.360332
0.392558
0.384501
0.360332
0.368388
0.384501
0.400615
0.320048
0.255595
0.199199
0.175029
0.118632
0.118632
0.086406
0.070293
0.062236
0.021953
0.021953
-0.002217
0.013896
-0.018331
-0.026387
-0.026387
-0.018331
-0.034444
-0.042500
-0.034444
-0.026387
0.005839
-0.002217
-0.026387
-0.002217
-0.010274
-0.002217
-0.018331
0.013896
0.021953
0.005839
-0.026387
0.013896
0.013896
0.013896
-0.018331
-0.026387
-0.002217
-0.002217
-0.002217
-0.002217
0.005839
0.046123
0.021953
-0.010274
-0.002217
-0.002217
0.005839
0.021953
-0.002217
0.013896
0.046123
-0.010274
0.005839
0.013896
-0.066670
-0.276143
-0.405049
-0.421163
-0.429219
-0.405049
-0.396993
-0.421163
-0.396993
-0.340596
-0.268086
-0.203633
-0.195577
-0.155293
-0.131124
-0.123067
-0.115010
-0.106954
-0.034444
-0.050557
-0.010274
-0.026387
-0.026387
-0.026387
0.005839
0.038066
-0.002217
-0.026387
-0.002217
0.175029
0.231425
0.207255
0.215312
0.191142
0.166972
0.134746
0.126689
0.118632
0.086406
0.021953
0.030009
-0.034444
-0.002217
-0.042500
-0.026387
-0.010274
-0.034444
-0.034444
-0.018331
-0.042500
0.005839
-0.042500
-0.018331
-0.018331
-0.034444
-0.050557
-0.002217
-0.050557
-0.026387
-0.034444
-0.034444
-0.050557
-0.018331
-0.058614
0.054179
0.183085
0.344218
0.360332
0.376445
0.408671
0.376445
0.376445
0.336162
0.320048
0.247539
0.191142
0.191142
0.142802
0.086406
0.086406
0.110576
0.062236
0.038066
-0.010274
-0.002217
-0.034444
-0.050557
-0.034444
-0.018331
-0.010274
-0.018331
-0.002217
-0.026387
-0.010274
0.005839
-0.042500
-0.010274
-0.026387
-0.074727
-0.042500
-0.026387
-0.002217
-0.002217
-0.018331
-0.026387
-0.018331
-0.042500
-0.002217
-0.010274
-0.002217
-0.034444
-0.002217
0.005839
-0.026387
0.030009
0.013896
-0.002217
0.038066
0.038066
-0.002217
-0.002217
-0.018331
-0.018331
0.005839
0.013896
-0.042500
-0.010274
-0.002217
-0.082784
-0.268086
-0.421163
-0.413106
-0.396993
-0.372823
-0.405049
-0.413106
-0.348653
-0.340596
-0.268086
-0.203633
-0.171407
-0.115010
-0.115010
-0.082784
-0.098897
-0.050557
-0.026387
-0.010274
-0.018331
-0.002217
0.005839
-0.018331
-0.018331
0.005839
-0.002217
-0.002217
0.013896
-0.018331
-0.018331
0.005839
-0.002217
-0.026387
-0.026387
0.005839
-0.010274
-0.018331
-0.042500
0.005839
-0.018331
-0.010274
-0.018331
-0.042500
-0.042500
-0.050557
-0.018331
-0.042500
-0.058614
-0.050557
-0.042500
-0.042500
-0.058614
-0.050557
-0.034444
-0.042500
-0.026387
-0.058614
0.046123
0.166972
0.199199
0.231425
0.191142
0.191142
0.271709
0.408671
0.497294
0.537578
0.457011
0.416728
0.376445
0.408671
0.392558
0.320048
0.239482
0.183085
0.166972
0.110576
0.118632
0.094462
0.038066
0.070293
0.046123
-0.018331
-0.010274
-0.002217
-0.010274
-0.018331
-0.026387
-0.042500
-0.018331
-0.034444
-0.034444
-0.026387
-0.002217
-0.026387
-0.026387
-0.042500
-0.018331
-0.002217
0.030009
-0.002217
-0.026387
0.005839
-0.002217
-0.010274
-0.002217
-0.050557
-0.010274
0.005839
-0.018331
0.013896
-0.002217
0.013896
0.030009
0.013896
0.021953
-0.002217
-0.002217
-0.010274
-0.010274
0.013896
0.013896
0.005839
-0.002217
0.021953
-0.034444
0.013896
-0.139180
-0.276143
-0.405049
-0.429219
-0.413106
-0.445332
-0.388936
-0.388936
-0.364766
-0.308370
-0.268086
-0.203633
-0.195577
-0.123067
-0.115010
-0.098897
-0.098897
-0.050557
-0.034444
-0.034444
-0.002217
0.005839
-0.002217
-0.002217
-0.002217
0.021953
-0.002217
-0.010274
0.005839
-0.002217
-0.002217
0.005839
0.005839
0.005839
-0.010274
0.005839
-0.010274
-0.010274
-0.034444
-0.002217
-0.026387
-0.002217
-0.002217
0.005839
-0.018331
-0.034444
-0.050557
-0.010274
0.005839
-0.042500
-0.002217
-0.010274
-0.010274
-0.026387
-0.058614
-0.002217
-0.002217
-0.058614
-0.026387
-0.018331
-0.026387
-0.026387
-0.026387
-0.034444
0.062236
0.255595
0.384501
0.376445
0.368388
0.360332
0.384501
0.392558
0.311992
0.287822
0.207255
0.166972
0.126689
0.094462
0.086406
0.054179
0.054179
0.038066
0.005839
0.070293
0.150859
0.215312
0.239482
0.191142
0.158916
0.142802
0.118632
0.094462
0.046123
-0.002217
-0.010274
0.013896
0.005839
0.021953
-0.026387
-0.018331
-0.002217
-0.002217
-0.010274
-0.002217
-0.034444
-0.010274
0.030009
-0.018331
0.005839
-0.010274
0.021953
-0.010274
-0.002217
0.013896
0.005839
-0.010274
0.021953
0.013896
0.005839
-0.010274
0.013896
0.013896
0.038066
-0.002217
0.030009
0.038066
0.030009
-0.002217
-0.098897
-0.276143
-0.396993
-0.421163
-0.380879
-0.429219
-0.429219
-0.413106
-0.396993
-0.284200
-0.243916
-0.187520
-0.155293
-0.123067
-0.090840
-0.082784
-0.074727
-0.058614
-0.042500
-0.034444
0.021953
0.013896
0.013896
0.030009
-0.010274
0.005839
0.005839
-0.018331
-0.018331
-0.034444
0.005839
-0.026387
-0.018331
-0.002217
0.005839
-0.010274
-0.002217
0.030009
0.030009
-0.010274
-0.002217
-0.042500
-0.010274
0.005839
0.005839
-0.026387
-0.042500
-0.010274
-0.018331
-0.026387
-0.018331
-0.034444
-0.010274
-0.050557
-0.042500
-0.034444
-0.018331
-0.026387
-0.026387
-0.010274
0.005839
-0.026387
-0.026387
-0.018331
0.102519
0.271709
0.408671
0.408671
0.424785
0.392558
0.352275
0.368388
0.344218
0.295878
0.231425
0.207255
0.158916
0.134746
0.086406
0.078349
0.086406
0.038066
0.046123
-0.002217
-0.010274
0.013896
-0.026387
-0.018331
-0.058614
-0.026387
0.005839
-0.026387
0.021953
-0.026387
-0.026387
0.005839
-0.026387
-0.018331
-0.010274
-0.050557
-0.018331
-0.010274
-0.018331
0.013896
-0.010274
0.021953
0.005839
0.013896
0.013896
-0.018331
-0.002217
-0.002217
0.118632
0.239482
0.247539
0.247539
0.215312
0.199199
0.175029
0.191142
0.158916
0.070293
0.062236
0.062236
0.062236
0.054179
0.038066
0.030009
-0.106954
-0.324483
-0.405049
-0.453389
-0.380879
-0.413106
-0.396993
-0.388936
-0.348653
-0.316426
-0.260030
-0.227803
-0.187520
-0.147237
-0.106954
-0.074727
-0.090840
-0.034444
-0.026387
-0.002217
0.005839
-0.018331
-0.002217
-0.034444
0.013896
-0.002217
0.013896
-0.010274
-0.002217
0.046123
-0.018331
-0.018331
0.005839
0.013896
0.005839
-0.010274
-0.026387
-0.018331
-0.002217
-0.018331
-0.042500
0.005839
-0.010274
-0.026387
-0.058614
-0.066670
-0.026387
-0.058614
-0.042500
-0.042500
-0.034444
-0.018331
-0.050557
-0.042500
-0.010274
-0.026387
-0.034444
-0.050557
-0.042500
-0.042500
-0.050557
-0.018331
-0.018331
0.021953
0.134746
0.336162
0.392558
0.408671
0.400615
0.360332
0.376445
0.352275
0.368388
0.263652
0.223369
0.199199
0.134746
0.110576
0.102519
0.086406
0.054179
0.054179
0.030009
0.005839
0.005839
-0.010274
-0.018331
-0.018331
-0.026387
-0.018331
-0.034444
-0.018331
-0.010274
-0.034444
0.005839
-0.010274
0.030009
-0.034444
-0.010274
0.021953
0.038066
-0.026387
-0.018331
-0.026387
0.005839
-0.018331
-0.002217
0.038066
0.013896
0.013896
-0.042500
-0.002217
0.021953
0.013896
-0.018331
-0.010274
-0.018331
0.005839
0.030009
-0.002217
0.021953
0.005839
-0.010274
0.013896
0.021953
0.013896
-0.010274
-0.010274
-0.147237
-0.316426
-0.380879
-0.453389
-0.445332
-0.429219
-0.421163
-0.276143
-0.147237
-0.074727
0.005839
0.030009
0.038066
0.078349
0.046123
0.062236
0.021953
-0.010274
-0.002217
0.005839
0.021953
0.013896
-0.010274
-0.010274
-0.010274
-0.010274
-0.042500
0.013896
0.021953
-0.010274
0.021953
0.013896
0.013896
0.005839
0.013896
-0.002217
-0.026387
-0.042500
-0.010274
-0.002217
0.005839
-0.018331
-0.002217
0.005839
0.013896
-0.002217
-0.034444
-0.026387
-0.026387
-0.026387
-0.034444
-0.034444
-0.034444
-0.042500
-0.026387
-0.034444
-0.058614
-0.058614
-0.034444
-0.002217
-0.042500
-0.010274
-0.034444
0.005839
0.166972
0.303935
0.432841
0.457011
0.368388
0.384501
0.368388
0.416728
0.352275
0.279765
0.231425
0.175029
0.150859
0.086406
0.070293
0.094462
0.046123
0.030009
0.021953
0.005839
-0.018331
-0.042500
-0.026387
-0.026387
0.013896
-0.018331
0.005839
-0.034444
-0.034444
-0.034444
-0.010274
-0.018331
-0.034444
-0.010274
-0.018331
-0.002217
-0.018331
-0.050557
-0.010274
0.021953
-0.026387
-0.018331
-0.018331
-0.018331
0.005839
0.013896
-0.002217
-0.002217
-0.002217
-0.018331
0.021953
0.005839
0.013896
0.005839
-0.002217
0.005839
0.013896
0.013896
-0.010274
0.013896
0.021953
-0.018331
0.030009
0.005839
-0.195577
-0.308370
-0.413106
-0.429219
-0.388936
-0.372823
-0.413106
-0.405049
-0.380879
-0.332540
-0.251973
-0.179463
-0.147237
-0.098897
-0.098897
-0.123067
-0.106954
-0.066670
-0.034444
-0.026387
-0.026387
0.005839
0.005839
-0.002217
0.013896
-0.002217
-0.042500
-0.002217
-0.018331
-0.018331
0.005839
-0.026387
0.013896
-0.058614
-0.042500
-0.050557
0.030009
0.158916
0.247539
0.239482
0.215312
0.175029
0.158916
0.126689
0.102519
0.021953
0.005839
-0.002217
0.005839
-0.042500
-0.002217
-0.042500
-0.010274
-0.002217
0.013896
-0.018331
-0.018331
-0.018331
-0.018331
-0.026387
-0.058614
-0.034444
-0.034444
0.013896
0.142802
0.279765
0.400615
0.432841
0.384501
0.392558
0.368388
0.336162
0.336162
0.295878
0.247539
0.199199
0.150859
0.102519
0.086406
0.102519
0.046123
0.046123
0.013896
0.030009
-0.002217
-0.034444
0.005839
-0.002217
-0.034444
-0.050557
-0.010274
-0.050557
-0.042500
-0.034444
-0.010274
-0.010274
-0.018331
-0.034444
-0.010274
-0.010274
-0.010274
-0.018331
-0.018331
0.013896
0.038066
-0.018331
-0.002217
0.005839
0.005839
0.005839
-0.010274
-0.018331
-0.026387
0.005839
0.021953
0.046123
0.013896
-0.010274
0.005839
0.005839
0.005839
-0.002217
0.005839
0.030009
0.030009
0.005839
0.030009
-0.010274
-0.203633
-0.316426
-0.437276
-0.437276
-0.388936
-0.388936
-0.405049
-0.429219
-0.348653
-0.284200
-0.187520
-0.211690
-0.139180
-0.131124
-0.155293
-0.090840
-0.090840
-0.058614
-0.002217
-0.058614
-0.002217
0.013896
0.013896
0.005839
-0.002217
-0.002217
0.021953
-0.002217
0.030009
-0.010274
0.005839
0.005839
-0.026387
-0.018331
-0.018331
-0.010274
0.030009
-0.018331
-0.002217
-0.010274
-0.050557
-0.034444
-0.010274
-0.050557
-0.010274
-0.018331
-0.026387
-0.058614
-0.002217
-0.042500
-0.018331
-0.050557
-0.034444
-0.034444
-0.082784
-0.026387
0.013896
-0.074727
-0.034444
-0.058614
-0.042500
-0.010274
0.110576
0.247539
0.416728
0.529521
0.618144
0.618144
0.545634
0.505351
0.473125
0.465068
0.376445
0.287822
0.231425
0.183085
0.166972
0.086406
0.086406
0.062236
0.062236
0.030009
0.013896
0.030009
-0.034444
0.005839
-0.042500
-0.018331
-0.018331
-0.034444
0.038066
-0.018331
-0.010274
0.038066
-0.026387
-0.010274
-0.050557
-0.002217
0.013896
-0.002217
0.013896
-0.018331
0.021953
-0.018331
0.038066
0.046123
0.005839
0.021953
0.005839
0.013896
-0.026387
-0.002217
0.005839
0.005839
0.013896
0.021953
0.030009
0.005839
-0.002217
-0.026387
0.021953
-0.002217
0.030009
0.013896
0.021953
0.030009
0.030009
-0.010274
-0.203633
-0.356709
-0.421163
-0.437276
-0.396993
-0.405049
-0.445332
-0.405049
-0.340596
-0.260030
-0.227803
-0.187520
-0.139180
-0.106954
-0.098897
-0.074727
-0.066670
-0.042500
-0.002217
-0.010274
-0.018331
-0.002217
0.054179
0.021953
-0.010274
0.046123
0.013896
0.013896
-0.034444
-0.010274
0.005839
-0.018331
-0.018331
-0.010274
0.021953
-0.026387
-0.010274
-0.010274
-0.018331
0.005839
-0.042500
-0.026387
-0.042500
-0.026387
-0.042500
-0.026387
-0.034444
-0.042500
-0.010274
-0.058614
-0.042500
-0.026387
-0.010274
-0.026387
-0.042500
-0.042500
-0.058614
-0.018331
-0.018331
-0.034444
-0.034444
-0.050557
-0.018331
-0.002217
0.207255
0.320048
0.384501
0.376445
0.352275
0.360332
0.384501
0.360332
0.279765
0.239482
0.215312
0.166972
0.126689
0.102519
0.086406
0.038066
0.030009
-0.018331
0.030009
-0.010274
-0.034444
-0.034444
-0.034444
-0.034444
-0.066670
-0.042500
0.086406
0.191142
0.215312
0.239482
0.199199
0.166972
0.166972
0.110576
0.102519
0.094462
0.062236
0.005839
0.005839
-0.010274
-0.010274
-0.002217
-0.002217
0.030009
-0.002217
-0.010274
-0.018331
-0.010274
-0.010274
-0.018331
-0.010274
0.005839
-0.018331
-0.050557
-0.002217
0.013896
-0.018331
-0.026387
-0.002217
-0.018331
-0.018331
-0.026387
0.005839
-0.050557
-0.211690
-0.348653
-0.445332
-0.429219
-0.364766
-0.388936
-0.372823
-0.396993
-0.356709
-0.268086
-0.235860
-0.179463
-0.131124
-0.131124
-0.106954
-0.090840
-0.090840
-0.050557
-0.010274
-0.010274
0.013896
-0.002217
-0.010274
-0.002217
-0.002217
-0.010274
0.005839
0.013896
-0.010274
-0.002217
-0.018331
-0.002217
-0.026387
0.013896
-0.002217
-0.010274
-0.002217
-0.010274
-0.002217
-0.026387
-0.026387
-0.026387
0.005839
-0.042500
-0.010274
-0.042500
-0.026387
-0.018331
-0.042500
-0.034444
-0.042500
-0.026387
0.021953
-0.002217
-0.026387
-0.026387
-0.034444
-0.026387
-0.026387
0.005839
-0.026387
-0.018331
-0.010274
0.046123
0.231425
0.320048
0.400615
0.408671
0.360332
0.368388
0.368388
0.344218
0.320048
0.279765
0.199199
0.166972
0.134746
0.142802
0.086406
0.054179
0.030009
0.046123
0.030009
0.021953
0.030009
-0.010274
-0.026387
-0.018331
-0.026387
-0.026387
-0.026387
-0.018331
-0.042500
-0.010274
0.005839
-0.010274
-0.034444
-0.010274
-0.034444
-0.018331
-0.034444
-0.026387
-0.018331
-0.018331
-0.002217
-0.002217
-0.010274
0.013896
0.013896
-0.018331
-0.002217
-0.002217
0.030009
0.110576
0.191142
0.255595
0.239482
0.215312
0.215312
0.166972
0.158916
0.094462
0.070293
0.030009
0.046123
0.005839
-0.002217
-0.066670
-0.243916
-0.364766
-0.453389
-0.437276
-0.380879
-0.372823
-0.437276
-0.364766
-0.316426
-0.300313
-0.243916
-0.171407
-0.171407
-0.066670
-0.131124
-0.082784
-0.082784
-0.058614
-0.026387
-0.042500
-0.018331
-0.002217
-0.026387
0.013896
0.021953
0.021953
0.013896
0.005839
-0.010274
0.030009
-0.034444
-0.010274
-0.018331
0.030009
-0.002217
0.005839
-0.002217
0.013896
0.021953
-0.034444
-0.002217
-0.026387
-0.010274
-0.018331
-0.026387
-0.042500
-0.034444
-0.042500
-0.026387
-0.002217
-0.050557
-0.042500
-0.034444
-0.042500
-0.018331
-0.026387
-0.034444
-0.010274
-0.058614
-0.050557
-0.042500
-0.026387
-0.050557
0.038066
0.239482
0.368388
0.448955
0.376445
0.368388
0.376445
0.352275
0.360332
0.320048
0.239482
0.183085
0.134746
0.126689
0.086406
0.078349
0.070293
0.046123
0.030009
-0.018331
-0.018331
-0.002217
0.013896
-0.010274
-0.018331
-0.034444
-0.026387
-0.018331
-0.026387
0.005839
-0.042500
-0.026387
-0.026387
0.030009
0.030009
-0.034444
-0.018331
-0.002217
-0.002217
-0.010274
-0.010274
-0.018331
-0.010274
0.030009
0.021953
0.005839
-0.002217
-0.010274
0.005839
-0.018331
0.046123
0.038066
-0.026387
0.013896
0.021953
0.005839
0.013896
-0.002217
-0.010274
-0.010274
-0.034444
-0.018331
-0.010274
-0.026387
-0.058614
-0.227803
-0.396993
-0.437276
-0.405049
-0.413106
-0.413106
-0.396993
-0.396993
-0.348653
-0.276143
-0.227803
-0.179463
-0.147237
-0.131124
-0.090840
0.070293
0.142802
0.199199
0.199199
0.191142
0.199199
0.150859
0.134746
0.142802
0.070293
0.054179
-0.002217
0.013896
0.038066
0.005839
0.021953
-0.026387
0.005839
0.013896
0.005839
-0.010274
0.021953
-0.050557
-0.018331
-0.026387
0.005839
-0.026387
-0.026387
-0.026387
-0.018331
-0.010274
-0.034444
-0.010274
-0.018331
0.005839
-0.010274
-0.034444
-0.026387
-0.034444
-0.010274
-0.026387
-0.026387
-0.010274
-0.042500
-0.034444
-0.018331
-0.010274
-0.034444
0.046123
0.239482
0.376445
0.392558
0.376445
0.392558
0.392558
0.344218
0.376445
0.303935
0.223369
0.191142
0.175029
0.118632
0.110576
0.054179
0.054179
0.038066
0.070293
0.005839
-0.002217
-0.002217
-0.010274
-0.010274
-0.026387
-0.018331
-0.010274
-0.010274
-0.026387
-0.002217
0.013896
-0.002217
-0.010274
0.013896
-0.010274
-0.002217
-0.018331
-0.002217
-0.018331
-0.042500
-0.042500
0.005839
-0.034444
-0.042500
0.005839
-0.010274
-0.058614
0.038066
-0.010274
0.005839
-0.018331
0.013896
0.030009
-0.002217
0.030009
-0.026387
0.021953
0.046123
0.013896
0.013896
-0.002217
0.005839
-0.026387
0.030009
-0.098897
-0.260030
-0.372823
-0.445332
-0.405049
-0.445332
-0.413106
-0.388936
-0.364766
-0.308370
-0.251973
-0.235860
-0.163350
-0.139180
-0.123067
-0.106954
-0.115010
-0.066670
-0.026387
-0.026387
-0.026387
-0.002217
0.005839
0.013896
0.013896
0.005839
-0.010274
0.005839
-0.018331
-0.010274
0.005839
-0.002217
-0.018331
-0.026387
-0.026387
-0.034444
-0.026387
-0.026387
-0.018331
0.005839
-0.002217
0.102519
0.175029
0.215312
0.199199
0.191142
0.191142
0.134746
0.126689
0.134746
0.054179
0.038066
0.021953
-0.002217
0.030009
-0.010274
-0.042500
-0.026387
-0.026387
-0.034444
-0.002217
-0.026387
-0.026387
-0.026387
0.070293
0.287822
0.360332
0.400615
0.384501
0.352275
0.328105
0.368388
0.352275
0.295878
0.207255
0.207255
0.158916
0.126689
0.086406
0.062236
0.070293
0.046123
0.013896
0.030009
0.005839
-0.018331
-0.018331
-0.042500
-0.018331
-0.042500
-0.034444
-0.018331
-0.026387
-0.042500
0.005839
-0.010274
-0.010274
-0.026387
-0.026387
-0.018331
0.038066
0.013896
-0.002217
-0.002217
-0.010274
-0.002217
0.005839
-0.010274
-0.018331
0.005839
0.005839
-0.002217
-0.002217
0.013896
0.013896
0.021953
-0.026387
0.013896
-0.010274
0.013896
0.013896
0.005839
0.005839
-0.010274
0.021953
-0.010274
0.005839
0.005839
-0.090840
-0.243916
-0.396993
-0.405049
-0.388936
-0.372823
-0.413106
-0.413106
-0.421163
-0.356709
-0.251973
-0.251973
-0.179463
-0.155293
-0.147237
-0.074727
-0.082784
-0.074727
-0.010274
-0.010274
0.005839
0.005839
-0.002217
-0.010274
0.021953
0.038066
0.013896
-0.010274
0.030009
0.005839
0.005839
0.021953
0.013896
-0.010274
0.013896
-0.002217
-0.010274
0.021953
-0.010274
0.005839
-0.034444
-0.002217
-0.002217
-0.010274
-0.010274
-0.034444
-0.026387
-0.018331
-0.018331
-0.034444
-0.034444
-0.058614
-0.026387
-0.050557
-0.026387
-0.034444
-0.042500
-0.034444
-0.058614
-0.074727
-0.050557
-0.066670
-0.050557
-0.034444
0.078349
0.263652
0.352275
0.376445
0.408671
0.457011
0.577861
0.593974
0.618144
0.577861
0.448955
0.384501
0.287822
0.215312
0.150859
0.118632
0.102519
0.046123
0.038066
-0.018331
0.005839
-0.034444
0.005839
-0.010274
-0.018331
-0.010274
-0.018331
-0.042500
-0.034444
-0.018331
-0.026387
-0.042500
-0.018331
-0.010274
-0.050557
-0.034444
-0.010274
-0.026387
-0.018331
-0.018331
-0.018331
-0.026387
0.013896
-0.002217
-0.034444
-0.026387
0.021953
-0.026387
0.013896
0.005839
0.038066
-0.026387
0.013896
-0.002217
-0.002217
-0.010274
0.021953
-0.002217
0.021953
0.013896
0.013896
0.005839
-0.010274
-0.018331
-0.123067
-0.300313
-0.405049
-0.413106
-0.429219
-0.413106
-0.421163
-0.405049
-0.413106
-0.324483
-0.260030
-0.179463
-0.171407
-0.123067
-0.106954
-0.090840
-0.082784
-0.074727
-0.018331
-0.010274
-0.026387
0.005839
0.013896
0.013896
-0.042500
0.005839
0.062236
-0.002217
0.021953
-0.034444
0.005839
-0.026387
0.005839
0.013896
-0.018331
-0.018331
-0.002217
0.005839
-0.018331
-0.002217
-0.042500
-0.010274
-0.018331
-0.010274
0.021953
-0.034444
-0.010274
-0.058614
-0.018331
-0.058614
-0.026387
-0.042500
-0.042500
-0.050557
-0.058614
-0.042500
-0.018331
-0.050557
-0.026387
-0.026387
-0.050557
-0.026387
-0.018331
-0.034444
0.126689
0.295878
0.368388
0.432841
0.416728
0.376445
0.368388
0.400615
0.352275
0.295878
0.231425
0.207255
0.183085
0.118632
0.086406
0.070293
0.070293
0.054179
0.021953
-0.018331
-0.034444
-0.026387
-0.034444
-0.042500
-0.010274
-0.050557
-0.058614
-0.010274
0.021953
0.142802
0.191142
0.183085
0.166972
0.175029
0.126689
0.150859
0.110576
0.086406
0.062236
0.013896
-0.002217
-0.018331
-0.034444
0.005839
-0.010274
-0.002217
0.013896
0.021953
0.013896
-0.010274
-0.018331
0.013896
-0.002217
-0.018331
0.021953
0.013896
0.013896
-0.002217
0.021953
-0.018331
-0.010274
-0.010274
0.038066
-0.010274
-0.123067
-0.300313
-0.396993
-0.413106
-0.388936
-0.437276
-0.380879
-0.413106
-0.340596
-0.316426
-0.235860
-0.211690
-0.179463
-0.139180
-0.115010
-0.098897
-0.074727
-0.066670
-0.050557
-0.010274
-0.018331
-0.002217
0.021953
-0.002217
-0.026387
0.021953
-0.010274
0.030009
-0.018331
0.005839
-0.034444
-0.002217
0.005839
0.021953
0.021953
-0.026387
-0.002217
-0.042500
-0.018331
-0.018331
-0.034444
-0.026387
0.005839
-0.026387
-0.034444
-0.026387
-0.042500
-0.018331
-0.026387
0.005839
-0.010274
-0.018331
-0.002217
-0.034444
-0.034444
-0.034444
-0.026387
-0.018331
-0.034444
-0.042500
-0.002217
-0.026387
-0.002217
-0.050557
0.110576
0.320048
0.368388
0.424785
0.376445
0.376445
0.392558
0.384501
0.328105
0.295878
0.231425
0.150859
0.134746
0.078349
0.062236
0.054179
0.038066
0.038066
-0.002217
-0.018331
-0.026387
-0.050557
-0.042500
-0.018331
-0.002217
-0.042500
-0.002217
