2.742582
2.919828
1.501860
0.607572
0.381987
0.236967
0.067778
0.035551
0.027494
-0.004732
-0.020845
-0.020845
-0.012789
-0.004732
0.019438
0.019438
0.019438
-0.004732
0.035551
-0.020845
0.011381
-0.004732
-0.004732
0.011381
0.011381
0.011381
0.019438
-0.004732
0.019438
0.011381
0.003324
0.019438
-0.053072
-0.222262
-0.496187
-0.584810
-0.568697
-0.584810
-0.560640
-0.552584
-0.528414
-0.504244
-0.472017
-0.472017
-0.472017
-0.439791
-0.351168
-0.318941
-0.246431
-0.214205
-0.173922
-0.181978
-0.101412
-0.109469
-0.069185
-0.109469
-0.069185
-0.053072
-0.053072
0.003324
0.019438
0.003324
-0.004732
0.003324
0.003324
-0.012789
-0.012789
-0.004732
0.003324
0.003324
-0.028902
0.003324
-0.012789
-0.036959
0.019438
0.019438
-0.012789
-0.028902
-0.028902
-0.036959
-0.020845
-0.012789
-0.028902
-0.028902
0.003324
-0.036959
-0.036959
-0.036959
-0.028902
-0.020845
-0.012789
-0.036959
-0.061129
-0.053072
-0.069185
-0.028902
-0.045015
-0.045015
-0.028902
0.156401
0.325590
0.381987
0.543119
0.663969
0.704252
0.688139
0.623686
0.551176
0.502836
0.462553
0.398100
0.325590
0.245024
0.220854
0.164457
0.148344
0.116117
0.075834
0.067778
0.019438
-0.020845
0.027494
-0.028902
-0.028902
-0.020845
-0.028902
-0.036959
-0.012789
-0.020845
-0.053072
-0.028902
-0.045015
-0.053072
-0.012789
-0.020845
-0.004732
-0.020845
-0.012789
0.003324
0.003324
0.003324
-0.012789
0.011381
0.019438
0.011381
0.043608
-0.012789
-0.020845
0.027494
0.003324
-0.012789
-0.004732
-0.004732
0.027494
0.011381
-0.028902
0.003324
-0.012789
0.003324
0.003324
0.019438
0.043608
-0.012789
0.003324
0.003324
-0.053072
-0.286715
-0.375338
-0.431734
-0.407564
-0.431734
-0.439791
-0.423678
-0.383394
-0.359224
-0.310885
-0.222262
-0.230318
-0.141695
-0.093355
-0.093355
-0.101412
-0.093355
-0.045015
-0.053072
-0.036959
0.003324
-0.020845
0.019438
0.019438
-0.004732
-0.028902
0.019438
-0.004732
-0.020845
0.003324
0.011381
0.011381
0.011381
0.003324
-0.004732
-0.004732
-0.045015
0.003324
-0.004732
0.019438
-0.045015
-0.004732
-0.028902
-0.028902
-0.012789
-0.045015
-0.036959
-0.036959
-0.045015
-0.004732
-0.004732
-0.036959
-0.028902
-0.020845
-0.012789
-0.028902
-0.036959
-0.036959
-0.036959
-0.020845
-0.020845
0.003324
-0.036959
-0.020845
0.116117
0.261137
0.325590
0.341703
0.325590
0.373930
0.341703
0.349760
0.333647
0.245024
0.188627
0.164457
0.116117
0.100004
0.067778
0.011381
0.043608
0.003324
-0.004732
-0.004732
-0.020845
-0.028902
-0.028902
-0.036959
-0.045015
-0.036959
-0.045015
-0.045015
-0.045015
-0.028902
0.100004
0.196684
0.212797
0.156401
0.100004
0.083891
0.043608
0.035551
0.043608
0.051664
-0.004732
0.043608
-0.012789
0.011381
-0.004732
0.011381
0.003324
0.035551
0.043608
0.011381
-0.004732
0.019438
-0.012789
-0.012789
0.027494
-0.012789
-0.012789
0.027494
0.019438
0.019438
0.011381
-0.004732
0.019438
-0.020845
-0.117525
-0.238375
-0.367281
-0.359224
-0.383394
-0.407564
-0.375338
-0.407564
-0.359224
-0.318941
-0.222262
-0.181978
-0.149752
-0.101412
-0.085299
-0.069185
-0.028902
-0.093355
-0.061129
-0.012789
-0.020845
-0.020845
0.027494
0.003324
0.003324
0.019438
0.011381
-0.012789
0.003324
0.011381
-0.012789
-0.004732
0.011381
-0.012789
0.019438
-0.004732
-0.020845
-0.020845
-0.004732
-0.028902
-0.012789
-0.004732
-0.012789
-0.036959
0.019438
-0.012789
-0.028902
-0.028902
-0.028902
-0.004732
-0.036959
0.011381
-0.004732
-0.012789
0.011381
-0.020845
-0.045015
-0.045015
-0.028902
-0.036959
-0.028902
-0.045015
-0.053072
-0.012789
0.100004
0.269194
0.317533
0.357817
0.325590
0.349760
0.365873
0.325590
0.301420
0.261137
0.196684
0.148344
0.116117
0.067778
0.091947
0.100004
0.051664
0.027494
-0.012789
-0.045015
-0.012789
-0.053072
-0.045015
-0.028902
-0.053072
0.003324
-0.028902
-0.020845
-0.012789
-0.036959
0.003324
-0.045015
-0.004732
-0.004732
-0.004732
0.003324
-0.036959
-0.004732
-0.020845
-0.012789
0.003324
-0.012789
-0.045015
0.027494
0.003324
-0.004732
-0.012789
-0.028902
-0.012789
-0.004732
-0.012789
-0.004732
0.003324
-0.036959
0.011381
0.124174
0.172514
0.228910
0.172514
0.172514
0.148344
0.091947
0.027494
0.067778
-0.069185
-0.230318
-0.335054
-0.343111
-0.359224
-0.383394
-0.359224
-0.399508
-0.294771
-0.262545
-0.214205
-0.157808
-0.117525
-0.109469
-0.101412
-0.077242
-0.045015
-0.053072
-0.020845
0.011381
-0.012789
0.003324
0.011381
0.003324
-0.028902
0.011381
0.027494
0.035551
0.027494
-0.012789
-0.028902
0.003324
-0.028902
-0.012789
0.003324
-0.020845
-0.028902
0.011381
-0.004732
0.011381
-0.020845
-0.012789
-0.028902
-0.028902
-0.012789
-0.004732
-0.028902
-0.045015
0.019438
-0.053072
-0.012789
-0.012789
-0.028902
-0.053072
-0.012789
-0.020845
-0.045015
-0.036959
0.003324
-0.036959
-0.004732
0.003324
-0.004732
-0.069185
0.067778
0.212797
0.293363
0.325590
0.365873
0.373930
0.357817
0.357817
0.293363
0.261137
0.196684
0.140287
0.124174
0.116117
0.067778
0.075834
0.043608
-0.004732
0.011381
-0.004732
0.003324
-0.020845
-0.020845
-0.036959
-0.036959
-0.028902
-0.028902
-0.020845
-0.036959
-0.053072
-0.028902
-0.020845
-0.061129
-0.036959
0.003324
-0.020845
0.027494
0.003324
-0.004732
0.011381
0.003324
-0.004732
0.003324
0.011381
-0.020845
0.011381
0.011381
0.003324
-0.020845
-0.028902
-0.004732
-0.012789
0.003324
-0.004732
0.019438
-0.004732
-0.012789
0.043608
0.011381
0.019438
-0.004732
0.019438
0.027494
-0.012789
-0.093355
-0.246431
-0.343111
-0.351168
-0.351168
-0.351168
-0.383394
-0.383394
-0.351168
-0.278658
-0.214205
-0.157808
-0.141695
-0.085299
-0.101412
-0.077242
-0.093355
-0.028902
-0.020845
0.011381
0.164457
0.180571
0.228910
0.212797
0.140287
0.124174
0.059721
0.059721
0.075834
0.027494
0.003324
-0.012789
0.011381
0.019438
0.035551
0.011381
-0.004732
0.003324
-0.036959
0.011381
-0.004732
0.011381
-0.045015
-0.020845
-0.045015
-0.012789
-0.012789
-0.028902
-0.028902
-0.036959
-0.036959
-0.036959
-0.045015
-0.004732
-0.028902
-0.020845
0.011381
-0.053072
-0.020845
-0.028902
-0.036959
-0.020845
-0.012789
-0.036959
0.027494
0.204740
0.285307
0.309477
0.349760
0.373930
0.373930
0.357817
0.309477
0.253080
0.180571
0.148344
0.100004
0.116117
0.083891
0.059721
0.051664
0.019438
0.003324
-0.020845
-0.020845
-0.028902
-0.012789
-0.020845
-0.012789
-0.045015
-0.053072
-0.028902
-0.028902
-0.045015
-0.004732
-0.012789
-0.020845
-0.028902
-0.020845
-0.028902
-0.012789
-0.012789
-0.004732
-0.020845
-0.012789
-0.020845
0.011381
0.035551
-0.028902
0.011381
-0.036959
0.011381
0.011381
-0.004732
0.019438
0.003324
0.011381
0.011381
0.011381
0.027494
0.027494
0.011381
-0.012789
0.019438
0.011381
-0.020845
0.003324
-0.004732
-0.093355
-0.230318
-0.326998
-0.383394
-0.375338
-0.415621
-0.407564
-0.343111
-0.351168
-0.270601
-0.214205
-0.133638
-0.141695
-0.077242
-0.109469
-0.101412
-0.036959
-0.036959
-0.012789
-0.020845
0.011381
0.003324
0.003324
0.003324
-0.020845
-0.004732
0.003324
-0.028902
0.011381
-0.012789
-0.012789
-0.004732
-0.028902
-0.012789
-0.045015
-0.012789
-0.028902
-0.053072
-0.012789
-0.036959
-0.053072
-0.004732
0.019438
0.148344
0.172514
0.172514
0.148344
0.148344
0.067778
0.043608
0.051664
-0.012789
0.019438
-0.012789
0.027494
-0.020845
-0.028902
-0.036959
-0.045015
-0.012789
-0.045015
-0.036959
-0.045015
-0.053072
0.035551
0.220854
0.269194
0.333647
0.357817
0.381987
0.373930
0.357817
0.317533
0.220854
0.156401
0.132231
0.091947
0.083891
0.043608
0.043608
0.019438
0.019438
-0.004732
0.011381
-0.028902
-0.053072
-0.012789
-0.045015
-0.004732
-0.045015
-0.028902
-0.036959
-0.004732
-0.020845
-0.028902
-0.004732
-0.036959
0.011381
0.003324
-0.012789
-0.012789
-0.028902
-0.004732
-0.004732
0.011381
0.011381
0.011381
0.003324
-0.012789
0.019438
0.003324
-0.004732
0.027494
-0.004732
0.011381
0.035551
0.003324
0.011381
0.027494
0.019438
0.027494
0.011381
-0.020845
0.027494
0.019438
0.011381
0.003324
-0.012789
-0.093355
-0.222262
-0.286715
-0.367281
-0.359224
-0.399508
-0.383394
-0.367281
-0.318941
-0.262545
-0.230318
-0.181978
-0.157808
-0.109469
-0.109469
-0.101412
-0.061129
-0.045015
-0.045015
-0.012789
-0.028902
0.003324
-0.004732
0.051664
-0.028902
0.003324
0.019438
-0.004732
-0.004732
0.003324
-0.036959
0.003324
0.019438
-0.012789
0.003324
-0.028902
0.011381
-0.036959
0.003324
0.003324
-0.020845
-0.028902
-0.020845
-0.012789
-0.028902
-0.020845
-0.028902
-0.045015
-0.053072
-0.036959
-0.036959
0.011381
-0.036959
-0.020845
-0.053072
-0.045015
-0.028902
-0.020845
-0.012789
-0.053072
-0.069185
-0.036959
-0.061129
-0.053072
0.035551
0.188627
0.261137
0.317533
0.325590
0.341703
0.325590
0.309477
0.390043
0.454496
0.446440
0.414213
0.309477
0.277250
0.236967
0.164457
0.124174
0.067778
0.011381
0.027494
0.011381
0.019438
-0.020845
-0.036959
-0.028902
-0.028902
0.019438
-0.020845
-0.004732
-0.061129
-0.020845
0.003324
-0.028902
-0.028902
-0.036959
-0.012789
0.003324
-0.004732
0.035551
-0.028902
-0.020845
0.003324
-0.012789
0.035551
0.011381
0.011381
0.043608
-0.020845
-0.028902
0.003324
-0.020845
0.011381
0.035551
0.011381
0.019438
-0.004732
-0.004732
0.019438
0.027494
0.035551
-0.004732
-0.020845
-0.012789
-0.012789
-0.077242
-0.254488
-0.294771
-0.359224
-0.383394
-0.399508
-0.359224
-0.391451
-0.343111
-0.286715
-0.230318
-0.165865
-0.141695
-0.125582
-0.101412
-0.093355
-0.036959
-0.036959
-0.012789
-0.028902
-0.012789
-0.004732
-0.028902
0.019438
-0.036959
-0.004732
0.003324
0.019438
0.011381
-0.028902
-0.004732
0.011381
0.011381
-0.028902
0.003324
-0.028902
0.011381
-0.036959
-0.020845
0.019438
-0.020845
-0.028902
-0.045015
-0.020845
-0.036959
-0.020845
-0.020845
-0.036959
-0.004732
-0.004732
-0.020845
-0.020845
-0.053072
0.019438
-0.004732
-0.028902
-0.028902
-0.028902
-0.012789
-0.004732
-0.028902
-0.028902
-0.028902
-0.028902
0.075834
0.188627
0.309477
0.341703
0.333647
0.357817
0.349760
0.333647
0.317533
0.228910
0.204740
0.180571
0.148344
0.083891
0.075834
0.067778
0.011381
-0.012789
-0.028902
-0.004732
-0.012789
-0.020845
-0.028902
-0.045015
-0.061129
0.003324
-0.061129
-0.061129
-0.036959
-0.069185
-0.045015
-0.036959
-0.028902
0.035551
0.164457
0.212797
0.228910
0.188627
0.156401
0.116117
0.075834
0.067778
0.035551
0.035551
0.035551
0.035551
0.003324
0.003324
0.011381
-0.012789
0.011381
0.011381
-0.004732
0.035551
0.027494
-0.012789
-0.012789
0.003324
0.003324
0.003324
0.003324
0.027494
-0.004732
0.003324
-0.077242
-0.270601
-0.343111
-0.351168
-0.351168
-0.423678
-0.375338
-0.359224
-0.367281
-0.286715
-0.206148
-0.206148
-0.149752
-0.109469
-0.117525
-0.085299
-0.053072
-0.028902
-0.028902
0.003324
0.027494
0.003324
0.019438
0.019438
-0.012789
-0.012789
-0.004732
-0.004732
-0.012789
-0.004732
-0.004732
0.003324
-0.004732
-0.012789
-0.020845
-0.020845
0.027494
-0.004732
-0.004732
0.003324
-0.012789
-0.004732
-0.012789
-0.028902
-0.020845
-0.028902
-0.028902
-0.020845
-0.028902
-0.012789
-0.061129
-0.053072
-0.028902
-0.053072
-0.028902
-0.045015
-0.061129
-0.028902
0.003324
-0.012789
-0.036959
-0.012789
-0.036959
-0.036959
0.027494
0.220854
0.325590
0.341703
0.357817
0.390043
0.390043
0.317533
0.325590
0.245024
0.188627
0.116117
0.100004
0.100004
0.067778
0.059721
0.043608
-0.028902
0.011381
0.003324
-0.012789
-0.045015
-0.020845
-0.012789
-0.053072
-0.028902
-0.036959
-0.020845
-0.004732
0.019438
-0.028902
-0.045015
-0.020845
-0.012789
-0.004732
-0.004732
-0.045015
-0.004732
-0.020845
-0.012789
-0.004732
0.019438
-0.004732
-0.020845
0.003324
-0.028902
-0.012789
0.003324
0.011381
-0.020845
-0.012789
0.003324
-0.036959
0.011381
0.003324
-0.020845
-0.028902
-0.028902
-0.045015
-0.036959
-0.028902
-0.012789
0.148344
0.212797
0.140287
-0.020845
-0.133638
-0.206148
-0.278658
-0.302828
-0.335054
-0.326998
-0.294771
-0.246431
-0.173922
-0.165865
-0.165865
-0.117525
-0.093355
-0.117525
-0.077242
-0.020845
-0.012789
-0.020845
-0.004732
-0.012789
0.003324
0.019438
0.019438
0.003324
-0.004732
-0.004732
-0.004732
-0.012789
-0.012789
0.003324
-0.012789
0.011381
0.003324
0.011381
-0.028902
-0.012789
-0.012789
-0.012789
-0.012789
0.003324
-0.036959
0.003324
-0.036959
-0.045015
-0.045015
-0.053072
-0.012789
-0.004732
-0.028902
-0.028902
-0.028902
-0.004732
-0.028902
-0.012789
-0.020845
-0.036959
0.011381
-0.045015
-0.028902
-0.036959
-0.036959
-0.028902
0.035551
0.188627
0.285307
0.325590
0.373930
0.349760
0.357817
0.349760
0.309477
0.220854
0.188627
0.148344
0.116117
0.108061
0.083891
0.059721
0.035551
-0.004732
-0.004732
-0.020845
-0.028902
0.003324
-0.045015
-0.028902
-0.028902
-0.036959
-0.045015
-0.020845
-0.028902
-0.028902
-0.020845
-0.020845
-0.004732
0.011381
-0.020845
-0.020845
0.011381
0.003324
0.003324
0.003324
-0.004732
0.035551
-0.020845
0.003324
0.019438
0.003324
-0.028902
0.011381
-0.012789
-0.004732
-0.004732
0.003324
-0.036959
0.011381
0.011381
-0.004732
0.003324
-0.004732
-0.020845
-0.004732
0.011381
0.003324
0.035551
-0.004732
-0.077242
-0.222262
-0.318941
-0.351168
-0.407564
-0.375338
-0.383394
-0.391451
-0.335054
-0.278658
-0.214205
-0.165865
-0.165865
-0.133638
-0.101412
-0.085299
-0.069185
-0.045015
-0.036959
-0.020845
0.035551
0.164457
0.228910
0.196684
0.180571
0.172514
0.083891
0.083891
0.075834
0.019438
0.059721
0.011381
-0.012789
0.003324
-0.028902
-0.036959
-0.012789
-0.028902
-0.012789
-0.012789
-0.028902
0.003324
-0.004732
-0.020845
-0.012789
-0.028902
0.003324
-0.036959
-0.020845
-0.053072
-0.053072
-0.012789
-0.020845
-0.020845
-0.045015
-0.012789
-0.036959
-0.004732
-0.053072
-0.028902
-0.069185
-0.012789
-0.028902
-0.036959
0.059721
0.212797
0.309477
0.365873
0.365873
0.357817
0.373930
0.333647
0.293363
0.245024
0.156401
0.132231
0.132231
0.108061
0.051664
0.027494
0.027494
0.003324
0.003324
-0.020845
-0.036959
-0.020845
-0.020845
-0.020845
-0.004732
-0.045015
-0.053072
-0.028902
-0.020845
-0.012789
-0.020845
-0.053072
0.011381
-0.012789
-0.028902
-0.020845
-0.004732
-0.036959
-0.004732
-0.020845
-0.004732
-0.028902
-0.028902
0.003324
-0.004732
0.019438
-0.004732
0.003324
0.003324
0.019438
-0.012789
0.003324
-0.012789
0.019438
-0.004732
-0.004732
-0.004732
-0.020845
-0.004732
0.011381
0.003324
0.003324
-0.004732
0.003324
-0.061129
-0.262545
-0.326998
-0.335054
-0.391451
-0.367281
-0.383394
-0.359224
-0.351168
-0.246431
-0.190035
-0.173922
-0.149752
-0.109469
-0.101412
-0.077242
-0.045015
-0.028902
-0.020845
-0.012789
0.003324
0.003324
-0.012789
0.019438
-0.004732
0.003324
0.019438
0.019438
0.019438
-0.053072
0.027494
-0.004732
-0.004732
0.011381
0.003324
-0.004732
-0.012789
-0.012789
-0.020845
0.003324
-0.012789
-0.045015
-0.020845
-0.028902
-0.053072
-0.028902
-0.045015
-0.045015
-0.061129
-0.045015
0.043608
0.148344
0.204740
0.188627
0.180571
0.164457
0.156401
0.100004
0.059721
0.035551
0.019438
0.011381
-0.004732
-0.036959
0.059721
0.204740
0.293363
0.333647
0.357817
0.341703
0.357817
0.349760
0.277250
0.228910
0.156401
0.140287
0.116117
0.051664
0.075834
0.075834
0.027494
0.003324
-0.012789
-0.004732
-0.045015
-0.036959
-0.020845
-0.012789
-0.036959
-0.036959
0.019438
-0.036959
-0.004732
0.003324
-0.045015
-0.028902
-0.020845
-0.020845
-0.004732
-0.020845
-0.028902
-0.020845
-0.036959
-0.004732
0.003324
-0.004732
-0.028902
0.003324
0.011381
0.027494
0.011381
-0.020845
0.027494
-0.004732
-0.020845
0.027494
0.043608
0.043608
-0.004732
-0.028902
0.019438
-0.012789
0.003324
-0.020845
0.003324
0.011381
0.011381
0.011381
-0.069185
-0.238375
-0.351168
-0.351168
-0.391451
-0.407564
-0.375338
-0.359224
-0.335054
-0.262545
-0.198092
-0.149752
-0.149752
-0.085299
-0.109469
-0.061129
-0.045015
-0.045015
-0.028902
-0.012789
-0.004732
-0.004732
-0.020845
-0.004732
0.003324
-0.012789
0.003324
-0.012789
-0.004732
-0.012789
-0.012789
-0.012789
0.019438
-0.020845
-0.004732
-0.012789
0.003324
-0.012789
-0.004732
0.011381
-0.020845
-0.012789
-0.004732
-0.028902
-0.012789
-0.045015
-0.004732
-0.036959
-0.045015
-0.036959
-0.020845
-0.036959
-0.028902
-0.036959
-0.045015
-0.053072
-0.053072
-0.028902
-0.028902
-0.036959
-0.020845
-0.028902
-0.053072
-0.036959
0.100004
0.180571
0.269194
0.309477
0.317533
0.357817
0.357817
0.349760
0.269194
0.228910
0.156401
0.172514
0.277250
0.293363
0.285307
0.277250
0.236967
0.172514
0.124174
0.067778
0.035551
0.027494
-0.004732
-0.004732
-0.004732
0.011381
-0.020845
-0.028902
-0.028902
-0.028902
-0.012789
-0.061129
-0.028902
-0.004732
-0.020845
-0.004732
0.027494
0.027494
0.011381
-0.028902
-0.020845
0.003324
-0.004732
-0.004732
-0.020845
-0.004732
0.003324
-0.004732
0.011381
0.011381
0.011381
0.019438
-0.004732
0.011381
0.019438
0.003324
-0.004732
-0.004732
0.011381
-0.020845
0.019438
0.003324
-0.012789
-0.020845
-0.109469
-0.254488
-0.302828
-0.326998
-0.383394
-0.383394
-0.383394
-0.391451
-0.294771
-0.270601
-0.206148
-0.157808
-0.141695
-0.101412
-0.085299
-0.061129
-0.036959
-0.020845
-0.020845
-0.004732
-0.020845
0.019438
-0.020845
-0.012789
0.019438
0.011381
0.003324
0.027494
-0.012789
-0.012789
0.003324
-0.004732
0.019438
0.003324
-0.036959
-0.004732
-0.012789
0.011381
-0.012789
-0.036959
-0.004732
0.019438
-0.028902
-0.020845
-0.036959
-0.012789
-0.028902
-0.020845
-0.004732
-0.020845
-0.020845
-0.020845
-0.020845
-0.028902
-0.012789
-0.020845
-0.012789
-0.061129
-0.028902
-0.012789
0.019438
-0.036959
-0.020845
0.011381
0.059721
0.228910
0.269194
0.349760
0.398100
0.349760
0.349760
0.373930
0.293363
0.204740
0.172514
0.140287
0.091947
0.051664
0.051664
0.059721
0.035551
0.011381
0.003324
-0.004732
-0.012789
-0.028902
-0.053072
-0.053072
-0.053072
-0.053072
-0.036959
-0.036959
0.003324
-0.012789
-0.028902
-0.004732
-0.045015
-0.028902
-0.020845
-0.036959
-0.053072
-0.028902
-0.012789
0.019438
0.164457
0.204740
0.228910
0.228910
0.212797
0.188627
0.180571
0.124174
0.067778
0.075834
0.043608
0.035551
0.043608
-0.012789
0.027494
0.035551
0.003324
0.003324
0.035551
0.003324
-0.012789
-0.020845
-0.012789
-0.004732
-0.101412
-0.262545
-0.302828
-0.367281
-0.383394
-0.399508
-0.407564
-0.367281
-0.318941
-0.254488
-0.230318
-0.149752
-0.149752
-0.117525
-0.101412
-0.093355
-0.036959
-0.045015
-0.004732
-0.004732
0.019438
0.011381
-0.020845
-0.020845
0.003324
0.019438
0.003324
-0.004732
0.019438
-0.004732
0.027494
-0.012789
-0.004732
0.011381
-0.004732
-0.004732
-0.012789
-0.004732
0.011381
0.003324
-0.020845
-0.012789
-0.053072
-0.012789
-0.028902
-0.028902
-0.004732
-0.020845
-0.004732
-0.045015
-0.020845
-0.012789
-0.020845
-0.004732
0.003324
-0.004732
-0.004732
-0.012789
-0.004732
-0.004732
-0.028902
-0.045015
-0.036959
0.035551
0.043608
0.253080
0.341703
0.349760
0.365873
0.341703
0.357817
0.325590
0.301420
0.245024
0.180571
0.140287
0.132231
0.075834
0.100004
0.051664
0.027494
0.003324
-0.004732
-0.012789
-0.012789
0.019438
0.019438
-0.028902
-0.004732
-0.036959
-0.020845
-0.012789
-0.028902
-0.012789
-0.012789
0.019438
-0.004732
0.003324
0.011381
-0.028902
0.011381
0.003324
0.019438
-0.012789
-0.012789
-0.012789
0.011381
0.011381
0.011381
0.043608
0.003324
-0.004732
0.019438
0.019438
-0.020845
0.011381
-0.012789
-0.004732
0.003324
0.019438
-0.004732
0.019438
-0.004732
-0.012789
-0.004732
-0.028902
0.019438
0.148344
0.180571
-0.012789
-0.157808
-0.181978
-0.173922
-0.254488
-0.270601
-0.246431
-0.246431
-0.198092
-0.157808
-0.125582
-0.133638
-0.125582
-0.085299
-0.101412
-0.061129
-0.020845
-0.012789
0.011381
0.019438
0.011381
0.019438
0.003324
0.003324
0.051664
0.011381
-0.012789
0.003324
-0.004732
0.043608
0.011381
-0.045015
-0.004732
-0.004732
-0.004732
-0.012789
-0.020845
0.019438
0.011381
-0.028902
-0.020845
-0.028902
-0.020845
-0.045015
-0.045015
-0.004732
-0.045015
-0.020845
-0.061129
-0.045015
-0.053072
-0.053072
-0.045015
-0.077242
-0.045015
-0.053072
-0.036959
-0.045015
-0.045015
-0.028902
-0.028902
-0.028902
0.003324
0.075834
0.228910
0.317533
0.373930
0.357817
0.390043
0.365873
0.365873
0.301420
0.228910
0.188627
0.148344
0.108061
0.075834
0.051664
0.059721
0.043608
0.019438
0.003324
0.011381
-0.012789
-0.012789
0.003324
-0.020845
-0.012789
-0.045015
-0.004732
-0.045015
-0.020845
-0.004732
-0.036959
-0.036959
-0.004732
-0.036959
0.011381
0.011381
-0.004732
-0.012789
-0.004732
-0.053072
0.003324
0.043608
0.011381
-0.012789
-0.012789
0.003324
-0.004732
-0.020845
0.019438
0.011381
0.003324
0.003324
-0.004732
0.019438
0.011381
0.035551
-0.004732
-0.004732
0.011381
0.003324
-0.004732
0.027494
-0.004732
0.011381
-0.109469
-0.246431
-0.335054
-0.383394
-0.391451
-0.391451
-0.399508
-0.343111
-0.294771
-0.294771
-0.190035
-0.165865
-0.133638
-0.077242
-0.036959
-0.085299
-0.036959
-0.053072
-0.020845
-0.020845
-0.028902
-0.020845
0.027494
-0.020845
-0.036959
-0.004732
-0.028902
-0.028902
0.051664
0.220854
0.220854
0.261137
0.228910
0.204740
0.164457
0.100004
0.075834
0.051664
0.027494
-0.004732
0.011381
-0.020845
-0.020845
-0.036959
-0.012789
-0.045015
-0.053072
-0.012789
-0.020845
-0.028902
-0.028902
-0.004732
-0.020845
-0.028902
-0.004732
-0.045015
-0.045015
-0.020845
-0.028902
-0.012789
-0.045015
0.019438
-0.004732
-0.028902
0.132231
0.212797
0.317533
0.349760
0.357817
0.341703
0.341703
0.349760
0.357817
0.245024
0.180571
0.148344
0.124174
0.100004
0.100004
0.116117
0.059721
0.027494
-0.012789
-0.036959
-0.061129
-0.053072
-0.012789
-0.020845
-0.012789
-0.036959
-0.004732
-0.028902
-0.053072
-0.053072
-0.036959
-0.012789
-0.020845
-0.012789
0.011381
-0.020845
-0.028902
0.003324
-0.028902
0.003324
0.003324
-0.004732
0.011381
0.003324
0.003324
0.003324
0.059721
-0.004732
-0.004732
-0.012789
0.011381
0.027494
0.019438
0.027494
0.043608
0.011381
0.003324
-0.020845
-0.004732
-0.012789
0.019438
0.019438
0.019438
0.027494
-0.093355
-0.214205
-0.310885
-0.375338
-0.399508
-0.343111
-0.375338
-0.383394
-0.351168
-0.246431
-0.198092
-0.165865
-0.101412
-0.077242
-0.101412
-0.077242
-0.053072
-0.020845
0.003324
-0.004732
-0.004732
0.035551
0.003324
-0.012789
-0.012789
-0.004732
0.035551
-0.012789
0.011381
-0.012789
0.011381
0.003324
-0.045015
0.003324
-0.004732
0.003324
-0.020845
-0.028902
-0.004732
-0.036959
-0.045015
-0.069185
-0.004732
-0.053072
0.003324
-0.020845
-0.028902
-0.053072
-0.028902
-0.045015
-0.020845
-0.045015
-0.028902
0.011381
0.091947
0.172514
0.180571
0.164457
0.108061
0.035551
0.011381
-0.012789
-0.012789
-0.004732
0.083891
0.253080
0.317533
0.349760
0.357817
0.341703
0.398100
0.349760
0.301420
0.228910
0.196684
0.132231
0.091947
0.075834
0.051664
0.067778
0.043608
0.011381
0.019438
-0.012789
-0.012789
-0.045015
-0.045015
-0.028902
-0.045015
0.003324
-0.036959
-0.036959
-0.004732
-0.004732
-0.012789
-0.036959
-0.036959
0.003324
-0.036959
-0.012789
0.003324
-0.004732
-0.020845
-0.028902
-0.028902
0.003324
-0.004732
-0.004732
-0.028902
0.011381
-0.012789
0.043608
0.011381
0.027494
0.003324
-0.004732
0.019438
0.003324
0.011381
0.027494
-0.012789
0.035551
0.027494
0.011381
0.003324
0.003324
0.027494
-0.004732
-0.101412
-0.246431
-0.351168
-0.383394
-0.415621
-0.391451
-0.367281
-0.351168
-0.318941
-0.246431
-0.181978
-0.165865
-0.141695
-0.117525
-0.085299
-0.077242
-0.093355
-0.020845
0.027494
-0.028902
0.027494
0.003324
0.027494
-0.012789
-0.012789
0.003324
0.035551
-0.012789
0.003324
0.011381
0.003324
-0.004732
-0.004732
-0.004732
-0.012789
-0.012789
-0.036959
0.011381
-0.028902
-0.004732
-0.012789
-0.020845
-0.004732
-0.020845
-0.004732
-0.020845
0.003324
-0.028902
-0.028902
-0.045015
0.011381
-0.028902
-0.012789
0.003324
-0.012789
-0.036959
-0.020845
-0.036959
-0.045015
-0.012789
-0.036959
-0.053072
-0.061129
-0.012789
0.116117
0.228910
0.309477
0.317533
0.390043
0.398100
0.357817
0.357817
0.285307
0.212797
0.140287
0.164457
0.132231
0.083891
0.075834
0.027494
0.003324
0.011381
0.116117
0.204740
0.220854
0.188627
0.116117
0.108061
0.043608
0.027494
-0.004732
-0.020845
0.019438
-0.004732
0.011381
-0.028902
-0.020845
-0.020845
-0.028902
0.019438
-0.028902
0.003324
0.011381
0.003324
0.003324
0.003324
-0.004732
0.003324
-0.028902
0.027494
0.027494
-0.036959
0.019438
0.035551
0.011381
0.011381
0.027494
-0.004732
0.003324
0.003324
0.027494
0.003324
-0.004732
-0.012789
0.035551
0.019438
-0.020845
0.011381
-0.101412
-0.270601
-0.351168
-0.343111
-0.391451
-0.359224
-0.399508
-0.359224
-0.326998
-0.278658
-0.190035
-0.141695
-0.101412
-0.117525
-0.077242
-0.061129
-0.020845
-0.053072
0.003324
-0.028902
0.035551
0.003324
-0.004732
0.027494
0.027494
0.019438
0.011381
-0.004732
0.019438
-0.028902
0.019438
0.003324
0.019438
0.019438
-0.053072
0.003324
0.003324
-0.028902
0.003324
-0.012789
-0.020845
0.011381
-0.012789
-0.028902
-0.004732
-0.045015
-0.036959
-0.045015
0.011381
-0.045015
-0.012789
-0.061129
-0.020845
-0.028902
-0.045015
-0.028902
-0.061129
-0.020845
-0.004732
-0.061129
-0.045015
-0.045015
-0.012789
0.003324
0.132231
0.245024
0.301420
0.325590
0.365873
0.341703
0.357817
0.357817
0.293363
0.212797
0.148344
0.172514
0.116117
0.116117
0.067778
0.027494
0.019438
0.011381
-0.036959
-0.004732
-0.020845
-0.036959
-0.045015
-0.020845
-0.053072
-0.045015
-0.028902
-0.012789
-0.004732
-0.028902
-0.028902
-0.012789
-0.004732
-0.036959
-0.045015
0.003324
0.027494
-0.020845
-0.036959
-0.020845
-0.020845
0.100004
0.188627
0.220854
0.228910
0.261137
0.172514
0.132231
0.124174
0.091947
0.083891
0.067778
0.075834
0.035551
0.011381
0.051664
0.011381
0.003324
-0.012789
-0.012789
-0.012789
0.019438
0.027494
-0.020845
-0.101412
-0.286715
-0.343111
-0.375338
-0.391451
-0.375338
-0.383394
-0.383394
-0.262545
-0.254488
-0.198092
-0.165865
-0.125582
-0.109469
-0.061129
-0.077242
-0.069185
-0.020845
0.003324
-0.012789
-0.012789
-0.020845
-0.004732
-0.004732
0.019438
-0.004732
0.011381
-0.020845
0.011381
-0.004732
-0.036959
-0.020845
0.003324
-0.004732
-0.012789
0.019438
-0.020845
-0.012789
-0.004732
-0.004732
-0.028902
-0.028902
-0.061129
-0.020845
-0.028902
-0.036959
-0.020845
-0.045015
0.019438
-0.036959
-0.020845
0.003324
-0.004732
0.003324
0.011381
-0.012789
-0.045015
-0.020845
-0.028902
-0.045015
-0.020845
0.003324
-0.012789
0.011381
0.108061
0.245024
0.317533
0.325590
0.357817
0.341703
0.317533
0.357817
0.301420
0.228910
0.172514
0.140287
0.083891
0.091947
0.083891
0.043608
0.043608
-0.004732
-0.028902
-0.028902
-0.020845
-0.036959
-0.036959
-0.004732
-0.028902
-0.020845
-0.020845
-0.012789
-0.012789
-0.012789
-0.036959
0.003324
-0.020845
0.011381
0.011381
-0.004732
0.027494
0.003324
-0.020845
0.011381
-0.020845
0.019438
0.003324
0.019438
0.003324
-0.028902
0.019438
0.019438
0.011381
0.003324
0.003324
0.003324
0.011381
0.011381
0.019438
0.003324
0.019438
0.011381
0.003324
-0.004732
-0.004732
-0.004732
0.003324
0.011381
-0.125582
-0.246431
-0.367281
-0.399508
-0.415621
-0.415621
-0.375338
-0.173922
-0.117525
-0.036959
0.019438
0.027494
0.027494
-0.012789
0.011381
-0.028902
-0.028902
-0.004732
-0.028902
0.019438
-0.004732
-0.012789
0.011381
0.003324
0.019438
-0.004732
-0.012789
-0.004732
0.003324
-0.004732
0.003324
0.035551
0.035551
0.019438
0.011381
0.003324
0.003324
-0.028902
-0.012789
-0.020845
-0.036959
-0.045015
0.011381
0.011381
-0.020845
-0.020845
-0.028902
-0.028902
-0.045015
-0.028902
-0.028902
-0.004732
-0.028902
-0.028902
0.003324
-0.012789
-0.036959
-0.028902
-0.028902
-0.004732
-0.020845
-0.045015
-0.012789
-0.020845
0.083891
0.245024
0.301420
0.349760
0.365873
0.398100
0.333647
0.309477
0.301420
0.220854
0.164457
0.100004
0.116117
0.083891
0.075834
0.043608
0.035551
-0.012789
-0.028902
-0.012789
-0.028902
-0.012789
-0.004732
-0.028902
-0.028902
-0.004732
0.003324
0.027494
-0.004732
0.019438
-0.028902
-0.045015
-0.036959
-0.020845
0.003324
0.019438
-0.036959
0.019438
-0.028902
0.003324
0.003324
-0.004732
-0.020845
-0.012789
0.003324
0.011381
0.027494
0.067778
0.019438
0.011381
0.027494
0.043608
0.011381
0.035551
0.043608
0.035551
0.003324
-0.012789
0.011381
0.003324
-0.004732
0.051664
0.027494
0.003324
-0.101412
-0.246431
-0.310885
-0.367281
-0.399508
-0.359224
-0.431734
-0.375338
-0.351168
-0.254488
-0.206148
-0.190035
-0.133638
-0.133638
-0.093355
-0.069185
-0.069185
-0.045015
0.011381
-0.036959
-0.012789
0.027494
0.003324
-0.004732
-0.020845
-0.012789
0.011381
-0.028902
-0.012789
-0.045015
-0.028902
-0.036959
0.108061
0.236967
0.204740
0.180571
0.188627
0.140287
0.091947
0.067778
0.019438
-0.004732
0.011381
0.027494
0.003324
-0.028902
-0.053072
-0.012789
-0.020845
-0.020845
-0.028902
-0.045015
-0.069185
-0.004732
-0.028902
-0.069185
0.003324
-0.036959
-0.020845
0.011381
-0.028902
-0.020845
-0.036959
-0.012789
0.132231
0.269194
0.333647
0.341703
0.349760
0.317533
0.309477
0.333647
0.277250
0.188627
0.156401
0.116117
0.108061
0.051664
0.067778
0.059721
0.011381
0.011381
-0.012789
-0.045015
-0.004732
-0.012789
-0.045015
-0.028902
-0.012789
-0.004732
