-2.814737
-3.314249
-1.831827
-0.937540
-0.647501
-0.510538
-0.309122
-0.091593
0.101767
0.206503
0.254843
0.214559
0.206503
0.158163
0.150106
0.117880
0.142050
0.133993
0.150106
0.101767
0.085653
0.045370
0.013143
0.005087
-0.027140
-0.011026
-0.011026
-0.011026
-0.011026
-0.011026
-0.019083
-0.011026
-0.035196
-0.011026
0.005087
-0.043253
-0.035196
-0.002970
-0.019083
-0.027140
-0.027140
-0.051310
-0.002970
-0.002970
-0.027140
-0.027140
0.005087
-0.051310
-0.035196
-0.019083
-0.059366
-0.019083
0.085653
0.303183
0.456259
0.480429
0.504599
0.528768
0.504599
0.488485
0.488485
0.480429
0.496542
0.472372
0.432089
0.383749
0.311239
0.230673
0.254843
0.190390
0.182333
0.158163
0.117880
0.109823
0.077597
0.045370
0.045370
0.005087
0.013143
0.005087
-0.027140
-0.002970
0.013143
-0.011026
-0.019083
0.005087
-0.002970
-0.011026
0.029257
-0.011026
-0.011026
0.021200
0.013143
0.053427
0.037313
0.037313
0.037313
0.013143
0.045370
0.045370
0.045370
0.005087
0.045370
0.013143
0.029257
0.061483
0.053427
0.037313
0.037313
0.037313
0.021200
-0.002970
0.045370
0.029257
0.037313
0.013143
0.005087
-0.075480
-0.220499
-0.389689
-0.462198
-0.454142
-0.454142
-0.470255
-0.429972
-0.429972
-0.397745
-0.405802
-0.349405
-0.293009
-0.252726
-0.180216
-0.164103
-0.107706
-0.091593
-0.099650
-0.067423
-0.059366
-0.059366
-0.035196
-0.027140
-0.011026
-0.002970
-0.027140
-0.011026
-0.011026
-0.011026
0.021200
0.013143
-0.019083
-0.019083
-0.019083
-0.002970
-0.035196
-0.035196
-0.043253
-0.035196
-0.027140
-0.051310
-0.002970
0.069540
0.190390
0.174276
0.214559
0.206503
0.158163
0.166220
0.133993
0.109823
0.101767
0.117880
0.093710
0.077597
0.061483
0.029257
-0.002970
-0.002970
-0.035196
-0.019083
-0.035196
-0.019083
-0.043253
-0.035196
0.045370
0.206503
0.287069
0.343466
0.351522
0.375692
0.367636
0.383749
0.359579
0.319296
0.254843
0.182333
0.174276
0.125936
0.117880
0.069540
0.109823
0.061483
0.045370
0.013143
-0.027140
-0.002970
-0.002970
-0.059366
-0.011026
-0.067423
-0.019083
-0.011026
-0.011026
-0.002970
-0.002970
-0.035196
-0.002970
-0.043253
-0.027140
-0.019083
-0.019083
0.005087
0.013143
-0.002970
0.037313
0.021200
0.021200
0.045370
0.013143
0.021200
0.005087
0.013143
0.021200
0.045370
0.013143
0.013143
-0.011026
0.013143
0.037313
0.053427
-0.002970
-0.002970
0.061483
0.005087
0.021200
0.013143
0.021200
0.005087
-0.002970
-0.123819
-0.268839
-0.341349
-0.373575
-0.357462
-0.397745
-0.421915
-0.446085
-0.365519
-0.276896
-0.196329
-0.172159
-0.131876
-0.139933
-0.139933
-0.091593
-0.083536
-0.043253
-0.011026
-0.027140
-0.011026
-0.002970
0.013143
-0.002970
0.005087
-0.002970
0.005087
0.021200
-0.002970
-0.002970
-0.011026
-0.002970
0.005087
-0.019083
0.013143
0.005087
-0.035196
-0.019083
-0.019083
-0.011026
0.013143
0.005087
0.013143
-0.002970
-0.002970
-0.011026
-0.011026
-0.035196
-0.027140
-0.027140
-0.027140
-0.019083
-0.027140
-0.035196
-0.027140
-0.011026
-0.019083
-0.051310
-0.035196
-0.051310
-0.067423
-0.051310
-0.067423
-0.043253
0.085653
0.246786
0.295126
0.327352
0.415975
0.552938
0.625448
0.609335
0.544882
0.456259
0.383749
0.335409
0.270956
0.214559
0.182333
0.133993
0.093710
0.069540
0.053427
0.005087
-0.027140
-0.035196
-0.019083
-0.027140
-0.011026
-0.027140
-0.027140
0.013143
-0.027140
-0.035196
-0.035196
-0.011026
0.005087
-0.035196
0.005087
0.021200
-0.027140
0.013143
0.013143
-0.002970
-0.002970
0.021200
0.013143
0.021200
0.029257
-0.011026
-0.002970
0.021200
0.061483
0.013143
0.061483
0.061483
0.045370
0.021200
-0.002970
0.037313
0.005087
0.013143
0.005087
-0.019083
0.045370
-0.019083
-0.011026
-0.002970
-0.099650
-0.252726
-0.333292
-0.349405
-0.421915
-0.405802
-0.405802
-0.389689
-0.309122
-0.284952
-0.204386
-0.204386
-0.147989
-0.091593
-0.083536
-0.091593
-0.091593
-0.067423
-0.019083
-0.002970
-0.002970
0.029257
-0.002970
0.021200
-0.002970
-0.051310
0.013143
0.021200
-0.027140
-0.002970
-0.002970
0.013143
-0.002970
0.013143
-0.027140
0.013143
-0.027140
-0.011026
0.045370
0.013143
-0.019083
-0.019083
-0.035196
-0.027140
-0.027140
-0.019083
-0.011026
-0.059366
-0.035196
-0.035196
-0.035196
-0.027140
-0.027140
-0.035196
-0.002970
-0.035196
0.013143
-0.019083
-0.035196
-0.043253
0.013143
-0.002970
-0.019083
-0.019083
0.061483
0.214559
0.295126
0.351522
0.375692
0.359579
0.375692
0.335409
0.335409
0.246786
0.214559
0.158163
0.142050
0.101767
0.069540
0.037313
0.053427
-0.002970
0.021200
-0.035196
-0.051310
-0.075480
-0.019083
-0.043253
-0.019083
-0.051310
-0.035196
0.013143
0.158163
0.190390
0.198446
0.206503
0.214559
0.182333
0.150106
0.125936
0.093710
0.093710
0.069540
0.101767
0.069540
0.013143
0.013143
0.037313
0.005087
0.045370
0.005087
0.005087
0.029257
0.005087
-0.002970
-0.002970
-0.019083
-0.011026
-0.011026
0.013143
-0.002970
0.045370
0.005087
-0.002970
0.013143
-0.019083
-0.002970
0.005087
-0.067423
-0.220499
-0.325235
-0.349405
-0.381632
-0.381632
-0.381632
-0.389689
-0.325235
-0.244669
-0.196329
-0.172159
-0.131876
-0.131876
-0.075480
-0.075480
-0.059366
-0.002970
-0.011026
-0.019083
-0.002970
0.005087
-0.002970
-0.019083
-0.011026
-0.002970
-0.002970
-0.002970
0.005087
0.013143
-0.035196
-0.019083
-0.011026
0.005087
-0.035196
-0.011026
-0.011026
-0.019083
-0.002970
-0.002970
-0.011026
-0.043253
-0.027140
0.005087
-0.019083
-0.011026
0.005087
-0.027140
-0.002970
-0.035196
-0.011026
-0.027140
-0.011026
-0.019083
-0.019083
-0.027140
-0.035196
-0.002970
0.005087
-0.027140
0.005087
0.013143
-0.011026
-0.035196
0.069540
0.214559
0.311239
0.367636
0.335409
0.383749
0.375692
0.343466
0.327352
0.238729
0.198446
0.182333
0.158163
0.077597
0.077597
0.061483
0.061483
0.045370
-0.002970
-0.019083
-0.051310
-0.019083
-0.002970
-0.027140
-0.011026
-0.027140
-0.002970
-0.027140
-0.002970
-0.011026
-0.043253
-0.035196
-0.027140
0.005087
-0.019083
-0.011026
-0.019083
0.013143
0.029257
-0.019083
0.005087
-0.027140
-0.011026
-0.019083
-0.002970
-0.027140
0.021200
0.013143
0.021200
-0.011026
-0.019083
-0.027140
-0.011026
-0.035196
0.005087
-0.002970
-0.011026
0.109823
0.222616
0.270956
0.246786
0.262899
0.238729
0.150106
0.101767
-0.075480
-0.204386
-0.204386
-0.284952
-0.301066
-0.357462
-0.349405
-0.309122
-0.260782
-0.220499
-0.172159
-0.131876
-0.091593
-0.107706
-0.091593
-0.059366
-0.051310
-0.011026
-0.011026
-0.027140
-0.011026
-0.002970
-0.027140
0.021200
-0.011026
0.005087
0.005087
0.013143
0.021200
-0.051310
-0.019083
-0.019083
0.005087
0.021200
0.005087
-0.002970
-0.011026
-0.002970
-0.002970
-0.002970
0.005087
-0.027140
-0.035196
-0.043253
0.005087
-0.011026
-0.027140
-0.027140
-0.035196
0.013143
-0.035196
0.005087
0.005087
-0.051310
-0.011026
-0.051310
0.005087
0.013143
-0.019083
-0.002970
-0.011026
-0.019083
-0.011026
0.061483
0.206503
0.287069
0.335409
0.383749
0.359579
0.383749
0.343466
0.311239
0.279013
0.198446
0.158163
0.117880
0.101767
0.085653
0.021200
0.053427
0.013143
-0.002970
-0.011026
-0.059366
-0.019083
-0.019083
-0.027140
-0.035196
-0.027140
0.013143
-0.035196
-0.011026
-0.019083
-0.002970
-0.002970
-0.011026
-0.019083
-0.035196
-0.019083
-0.011026
0.013143
0.005087
0.013143
0.013143
0.013143
0.005087
0.037313
0.013143
0.005087
-0.002970
0.013143
-0.011026
0.029257
0.021200
0.013143
0.005087
0.037313
0.037313
0.045370
0.029257
0.013143
0.013143
0.037313
0.005087
0.013143
0.013143
0.005087
-0.051310
-0.252726
-0.317179
-0.333292
-0.365519
-0.373575
-0.389689
-0.373575
-0.357462
-0.244669
-0.204386
-0.172159
-0.147989
-0.107706
-0.099650
-0.099650
-0.043253
-0.043253
0.085653
0.182333
0.222616
0.230673
0.222616
0.206503
0.182333
0.190390
0.142050
0.142050
0.117880
0.093710
0.069540
0.021200
0.005087
0.005087
0.005087
-0.019083
0.005087
-0.019083
-0.011026
-0.002970
-0.011026
-0.011026
-0.035196
-0.027140
-0.035196
-0.043253
-0.011026
-0.035196
-0.035196
-0.019083
-0.043253
-0.035196
-0.059366
-0.043253
-0.027140
-0.043253
-0.035196
-0.002970
-0.011026
-0.011026
-0.019083
-0.027140
-0.011026
-0.019083
0.061483
0.198446
0.303183
0.311239
0.311239
0.351522
0.343466
0.319296
0.287069
0.238729
0.166220
0.133993
0.109823
0.101767
0.069540
0.069540
-0.002970
0.005087
0.021200
0.013143
-0.035196
-0.011026
-0.011026
-0.019083
-0.019083
-0.043253
0.013143
-0.027140
-0.043253
-0.019083
-0.035196
0.013143
0.013143
0.005087
-0.011026
-0.035196
-0.011026
-0.019083
-0.019083
0.021200
0.013143
0.021200
0.037313
0.013143
0.021200
0.029257
-0.002970
0.037313
0.021200
-0.002970
0.013143
-0.011026
0.013143
-0.019083
0.005087
0.021200
-0.002970
-0.002970
-0.011026
0.053427
0.013143
0.005087
0.021200
0.021200
-0.091593
-0.244669
-0.317179
-0.365519
-0.381632
-0.413858
-0.397745
-0.389689
-0.333292
-0.252726
-0.220499
-0.188273
-0.139933
-0.115763
-0.075480
-0.059366
-0.043253
-0.002970
0.013143
-0.011026
0.029257
-0.027140
0.005087
0.021200
-0.011026
-0.011026
0.005087
-0.011026
-0.002970
-0.011026
-0.002970
-0.027140
-0.027140
0.013143
-0.002970
-0.019083
-0.019083
-0.035196
-0.035196
-0.027140
-0.027140
-0.002970
-0.019083
-0.011026
-0.035196
-0.043253
0.029257
0.174276
0.230673
0.254843
0.230673
0.206503
0.174276
0.150106
0.125936
0.125936
0.085653
0.069540
0.069540
0.053427
0.061483
-0.002970
-0.043253
-0.027140
0.037313
0.182333
0.311239
0.327352
0.375692
0.343466
0.351522
0.335409
0.303183
0.238729
0.174276
0.150106
0.085653
0.077597
0.069540
0.053427
0.029257
0.045370
-0.019083
-0.027140
-0.002970
-0.043253
-0.035196
-0.035196
-0.043253
-0.027140
-0.002970
-0.019083
-0.035196
0.005087
-0.035196
-0.002970
-0.035196
-0.035196
0.005087
-0.027140
-0.011026
0.005087
-0.002970
0.013143
-0.019083
0.021200
0.029257
0.021200
0.029257
0.013143
-0.002970
0.021200
0.021200
0.013143
-0.002970
-0.019083
0.021200
0.005087
-0.002970
-0.011026
0.005087
0.021200
0.005087
0.005087
0.037313
-0.011026
-0.011026
-0.002970
-0.083536
-0.260782
-0.349405
-0.365519
-0.317179
-0.389689
-0.421915
-0.389689
-0.333292
-0.260782
-0.188273
-0.180216
-0.099650
-0.147989
-0.091593
-0.051310
-0.035196
-0.051310
-0.011026
-0.027140
0.013143
0.005087
-0.027140
-0.002970
-0.051310
0.005087
-0.027140
0.005087
-0.002970
-0.011026
0.013143
0.013143
-0.019083
-0.011026
-0.011026
0.005087
-0.002970
-0.002970
-0.011026
-0.051310
-0.011026
-0.027140
-0.051310
-0.019083
-0.011026
-0.002970
-0.043253
-0.011026
-0.011026
-0.011026
0.005087
-0.059366
-0.035196
-0.067423
-0.002970
-0.002970
-0.035196
-0.035196
-0.002970
-0.027140
-0.027140
-0.051310
-0.067423
-0.051310
0.037313
0.246786
0.254843
0.327352
0.335409
0.415975
0.569052
0.585165
0.544882
0.480429
0.375692
0.319296
0.254843
0.230673
0.190390
0.182333
0.150106
0.093710
0.045370
-0.002970
-0.002970
-0.019083
-0.035196
-0.043253
-0.011026
-0.043253
-0.043253
-0.019083
-0.019083
0.005087
0.013143
-0.027140
-0.002970
-0.002970
-0.027140
0.013143
-0.019083
-0.019083
-0.002970
0.013143
0.005087
0.005087
-0.027140
-0.002970
-0.011026
0.021200
-0.019083
0.013143
0.021200
0.013143
0.005087
0.005087
0.037313
0.037313
0.021200
0.021200
-0.011026
0.013143
0.013143
-0.011026
0.013143
-0.027140
0.037313
-0.019083
-0.099650
-0.252726
-0.341349
-0.325235
-0.357462
-0.381632
-0.373575
-0.397745
-0.309122
-0.276896
-0.204386
-0.180216
-0.099650
-0.123819
-0.083536
-0.059366
-0.027140
0.021200
-0.019083
-0.035196
-0.002970
-0.011026
-0.002970
-0.002970
-0.011026
0.013143
-0.002970
0.013143
-0.019083
0.005087
-0.019083
-0.011026
-0.019083
0.013143
0.005087
0.005087
-0.019083
0.005087
-0.019083
-0.027140
0.013143
-0.035196
0.005087
-0.002970
-0.002970
-0.027140
-0.027140
-0.043253
-0.043253
-0.027140
-0.051310
-0.035196
-0.002970
-0.027140
-0.011026
-0.035196
-0.035196
-0.011026
-0.051310
-0.035196
-0.043253
-0.043253
-0.002970
-0.035196
0.101767
0.246786
0.319296
0.311239
0.375692
0.383749
0.351522
0.343466
0.319296
0.238729
0.230673
0.109823
0.117880
0.077597
0.069540
0.069540
0.029257
0.005087
0.005087
-0.027140
-0.051310
-0.019083
-0.043253
-0.051310
-0.011026
-0.059366
-0.027140
-0.051310
-0.051310
-0.043253
-0.059366
-0.027140
-0.067423
-0.035196
-0.002970
0.117880
0.238729
0.254843
0.246786
0.214559
0.206503
0.158163
0.174276
0.166220
0.125936
0.150106
0.117880
0.069540
0.093710
0.085653
0.013143
0.037313
-0.011026
0.005087
-0.002970
-0.011026
-0.011026
-0.011026
0.005087
0.021200
0.013143
0.021200
-0.027140
0.005087
-0.123819
-0.260782
-0.293009
-0.349405
-0.365519
-0.357462
-0.389689
-0.365519
-0.341349
-0.252726
-0.188273
-0.147989
-0.131876
-0.075480
-0.083536
-0.027140
-0.067423
-0.035196
0.013143
-0.027140
-0.011026
0.005087
-0.002970
0.005087
0.005087
-0.027140
-0.002970
-0.027140
-0.002970
-0.019083
0.013143
-0.011026
-0.002970
-0.002970
-0.002970
-0.019083
-0.035196
0.013143
-0.027140
-0.035196
-0.043253
-0.027140
-0.027140
-0.019083
-0.035196
-0.011026
-0.027140
-0.059366
0.013143
-0.051310
-0.027140
-0.019083
-0.011026
-0.002970
-0.027140
-0.011026
-0.019083
-0.011026
-0.002970
-0.019083
-0.019083
0.029257
-0.019083
-0.035196
0.085653
0.238729
0.295126
0.375692
0.375692
0.359579
0.391806
0.351522
0.319296
0.222616
0.190390
0.166220
0.117880
0.085653
0.061483
0.045370
0.069540
0.005087
0.021200
-0.002970
0.013143
0.005087
-0.035196
-0.011026
-0.011026
-0.011026
0.029257
-0.019083
-0.027140
-0.011026
-0.027140
-0.019083
-0.043253
-0.019083
-0.027140
-0.011026
0.005087
-0.019083
0.021200
-0.002970
0.005087
-0.011026
0.045370
0.005087
-0.011026
0.037313
-0.011026
0.005087
0.029257
-0.011026
0.013143
-0.019083
0.005087
-0.043253
-0.035196
-0.002970
-0.035196
-0.019083
-0.019083
-0.002970
0.109823
0.262899
0.254843
0.238729
0.085653
-0.075480
-0.139933
-0.212442
-0.236612
-0.276896
-0.293009
-0.268839
-0.236612
-0.164103
-0.099650
-0.091593
-0.075480
-0.107706
-0.051310
-0.099650
-0.075480
-0.043253
0.013143
-0.011026
-0.011026
0.005087
-0.019083
-0.043253
0.029257
-0.002970
-0.011026
-0.027140
-0.002970
-0.011026
-0.019083
0.013143
-0.035196
-0.011026
0.013143
-0.002970
-0.019083
-0.035196
0.005087
-0.043253
-0.002970
-0.019083
-0.002970
-0.019083
0.005087
-0.035196
-0.011026
-0.043253
-0.043253
-0.011026
-0.027140
-0.051310
-0.019083
-0.027140
-0.011026
-0.051310
-0.035196
-0.035196
-0.019083
-0.011026
-0.043253
-0.011026
-0.059366
-0.019083
0.093710
0.214559
0.287069
0.335409
0.335409
0.367636
0.327352
0.319296
0.279013
0.206503
0.190390
0.142050
0.077597
0.045370
0.061483
0.037313
0.029257
0.029257
-0.002970
-0.019083
0.005087
-0.019083
-0.035196
-0.019083
-0.027140
-0.027140
-0.051310
-0.019083
-0.035196
-0.059366
-0.035196
-0.011026
0.005087
-0.027140
-0.011026
-0.002970
0.021200
-0.011026
-0.002970
-0.011026
0.005087
-0.027140
0.013143
0.005087
-0.011026
0.005087
-0.011026
-0.002970
-0.011026
0.013143
-0.035196
-0.002970
0.021200
0.013143
-0.002970
0.005087
0.005087
0.021200
0.005087
0.037313
0.013143
-0.019083
-0.002970
-0.019083
-0.123819
-0.276896
-0.373575
-0.365519
-0.365519
-0.381632
-0.389689
-0.381632
-0.341349
-0.228556
-0.172159
-0.139933
-0.131876
-0.099650
-0.075480
-0.083536
-0.059366
-0.051310
-0.043253
-0.002970
-0.019083
-0.027140
-0.019083
-0.002970
0.109823
0.182333
0.222616
0.206503
0.222616
0.190390
0.125936
0.101767
0.093710
0.037313
0.029257
0.029257
-0.019083
0.013143
-0.002970
-0.011026
-0.043253
-0.027140
-0.027140
-0.027140
-0.043253
-0.035196
-0.027140
-0.002970
-0.002970
0.005087
-0.002970
-0.027140
-0.035196
-0.011026
-0.019083
-0.019083
0.005087
-0.051310
-0.019083
-0.027140
-0.027140
-0.027140
-0.051310
-0.027140
0.109823
0.254843
0.335409
0.303183
0.375692
0.367636
0.335409
0.359579
0.295126
0.206503
0.182333
0.174276
0.093710
0.077597
0.053427
0.069540
0.061483
0.037313
0.005087
-0.002970
-0.002970
-0.027140
-0.011026
-0.035196
-0.011026
-0.019083
-0.051310
-0.035196
-0.011026
0.013143
-0.011026
-0.011026
-0.027140
-0.019083
0.013143
-0.027140
-0.027140
-0.002970
-0.002970
0.013143
0.037313
0.005087
0.013143
0.005087
0.005087
-0.019083
0.005087
-0.002970
0.013143
-0.019083
-0.011026
-0.002970
-0.019083
0.005087
-0.002970
-0.011026
-0.011026
-0.002970
0.005087
0.013143
0.005087
-0.019083
0.013143
-0.027140
-0.147989
-0.244669
-0.333292
-0.365519
-0.397745
-0.397745
-0.357462
-0.389689
-0.301066
-0.220499
-0.188273
-0.156046
-0.139933
-0.083536
-0.107706
-0.075480
-0.027140
-0.027140
-0.027140
-0.002970
-0.027140
0.029257
0.005087
0.021200
0.013143
0.029257
-0.011026
-0.011026
0.013143
-0.011026
0.029257
-0.011026
-0.011026
-0.011026
-0.011026
-0.019083
-0.027140
-0.043253
-0.035196
-0.027140
-0.027140
-0.027140
-0.051310
-0.043253
-0.075480
-0.035196
-0.035196
0.053427
0.158163
0.190390
0.174276
0.174276
0.166220
0.109823
0.101767
0.069540
0.037313
0.013143
-0.002970
-0.019083
-0.027140
-0.011026
-0.011026
-0.035196
0.109823
0.238729
0.295126
0.303183
0.351522
0.319296
0.359579
0.327352
0.279013
0.198446
0.206503
0.133993
0.093710
0.085653
0.021200
0.045370
0.029257
-0.011026
0.005087
-0.035196
-0.035196
-0.035196
-0.051310
-0.043253
-0.043253
-0.051310
-0.019083
-0.051310
-0.051310
-0.019083
-0.011026
-0.011026
0.013143
-0.019083
-0.043253
-0.002970
-0.011026
0.013143
0.005087
-0.027140
0.013143
-0.035196
-0.002970
-0.002970
-0.011026
-0.002970
-0.011026
-0.011026
-0.002970
0.037313
-0.002970
-0.019083
-0.019083
0.005087
-0.002970
-0.035196
0.005087
0.005087
0.013143
-0.019083
-0.011026
0.013143
-0.002970
-0.027140
-0.164103
-0.276896
-0.365519
-0.365519
-0.389689
-0.373575
-0.357462
-0.349405
-0.317179
-0.268839
-0.188273
-0.115763
-0.139933
-0.107706
-0.067423
-0.075480
-0.051310
-0.035196
-0.027140
-0.027140
-0.011026
-0.035196
0.021200
0.005087
-0.002970
-0.011026
0.005087
-0.011026
-0.027140
-0.035196
0.021200
0.005087
-0.002970
-0.002970
-0.002970
-0.002970
-0.002970
-0.027140
-0.035196
0.005087
-0.002970
-0.027140
0.005087
-0.019083
-0.051310
-0.035196
-0.035196
-0.027140
-0.011026
-0.059366
-0.059366
-0.027140
-0.011026
-0.011026
-0.002970
-0.011026
-0.035196
-0.019083
-0.059366
-0.027140
-0.027140
-0.059366
-0.043253
-0.035196
0.109823
0.230673
0.319296
0.311239
0.367636
0.343466
0.351522
0.335409
0.270956
0.230673
0.166220
0.085653
0.101767
0.214559
0.270956
0.279013
0.254843
0.238729
0.198446
0.142050
0.166220
0.150106
0.101767
0.045370
0.029257
-0.019083
0.005087
-0.043253
-0.035196
-0.035196
-0.027140
-0.035196
-0.027140
-0.011026
0.005087
-0.027140
-0.011026
-0.035196
-0.002970
-0.027140
-0.011026
-0.043253
0.021200
-0.035196
-0.002970
-0.011026
0.005087
-0.011026
-0.035196
-0.002970
0.005087
0.029257
-0.011026
0.029257
-0.019083
-0.011026
0.013143
0.005087
0.005087
0.029257
-0.027140
-0.011026
-0.027140
-0.011026
-0.156046
-0.301066
-0.317179
-0.381632
-0.397745
-0.365519
-0.397745
-0.325235
-0.284952
-0.236612
-0.220499
-0.164103
-0.147989
-0.115763
-0.075480
-0.091593
-0.035196
-0.002970
0.005087
0.013143
0.021200
0.005087
0.021200
0.029257
-0.011026
0.005087
0.005087
-0.019083
0.029257
0.013143
0.037313
-0.027140
-0.002970
-0.019083
0.029257
-0.011026
-0.043253
-0.035196
-0.011026
-0.019083
-0.019083
-0.019083
-0.091593
-0.027140
-0.011026
-0.019083
-0.011026
-0.035196
-0.002970
-0.019083
-0.051310
-0.051310
-0.035196
-0.019083
-0.027140
-0.035196
-0.019083
0.013143
-0.011026
-0.019083
-0.043253
-0.019083
-0.019083
0.021200
0.117880
0.262899
0.295126
0.319296
0.343466
0.375692
0.383749
0.343466
0.270956
0.214559
0.182333
0.142050
0.125936
0.061483
0.045370
0.061483
0.053427
-0.002970
-0.027140
-0.067423
-0.027140
-0.002970
-0.043253
-0.027140
-0.035196
-0.059366
-0.043253
-0.051310
-0.027140
-0.011026
-0.043253
0.005087
-0.035196
-0.043253
-0.019083
-0.035196
-0.019083
-0.002970
0.117880
0.222616
0.254843
0.230673
0.198446
0.198446
0.182333
0.117880
0.117880
0.101767
0.061483
0.037313
0.021200
0.021200
0.037313
0.021200
0.013143
-0.002970
-0.027140
0.045370
-0.019083
-0.019083
-0.035196
0.013143
0.029257
-0.019083
-0.131876
-0.293009
-0.317179
-0.333292
-0.389689
-0.405802
-0.389689
-0.333292
-0.293009
-0.228556
-0.212442
-0.139933
-0.123819
-0.107706
-0.083536
-0.091593
-0.059366
-0.035196
0.021200
0.037313
0.005087
0.013143
0.021200
-0.019083
-0.019083
-0.002970
0.013143
-0.011026
-0.027140
-0.011026
-0.019083
-0.019083
-0.002970
0.005087
-0.002970
0.021200
-0.019083
-0.002970
0.013143
-0.027140
-0.035196
-0.011026
0.005087
0.005087
-0.035196
-0.051310
-0.067423
-0.051310
-0.051310
-0.059366
-0.043253
-0.035196
-0.027140
-0.059366
0.005087
0.005087
-0.035196
-0.051310
-0.035196
-0.035196
-0.035196
-0.035196
-0.043253
-0.019083
0.133993
0.238729
0.343466
0.327352
0.367636
0.367636
0.367636
0.335409
0.295126
0.190390
0.182333
0.142050
0.077597
0.085653
0.045370
0.053427
0.037313
-0.019083
-0.035196
-0.035196
-0.027140
-0.027140
-0.035196
-0.043253
-0.043253
-0.043253
-0.051310
-0.027140
-0.035196
-0.027140
-0.011026
-0.011026
-0.035196
0.005087
-0.019083
-0.002970
0.005087
0.013143
-0.011026
-0.019083
0.005087
-0.035196
-0.019083
-0.002970
-0.011026
-0.002970
0.013143
-0.011026
-0.027140
-0.011026
0.021200
-0.002970
0.037313
-0.027140
-0.019083
0.013143
-0.011026
-0.019083
-0.027140
0.013143
-0.027140
-0.035196
0.029257
-0.019083
-0.180216
-0.301066
-0.244669
-0.147989
-0.139933
-0.131876
-0.147989
-0.147989
-0.107706
-0.091593
-0.067423
-0.067423
-0.067423
-0.043253
-0.043253
-0.027140
-0.027140
-0.002970
0.021200
-0.019083
-0.027140
0.005087
0.021200
-0.011026
-0.011026
0.005087
0.005087
0.013143
0.005087
-0.002970
-0.027140
-0.002970
-0.035196
-0.027140
-0.019083
-0.019083
-0.035196
0.029257
-0.011026
-0.019083
-0.051310
0.013143
-0.019083
-0.035196
0.021200
-0.027140
-0.002970
0.013143
-0.043253
-0.035196
-0.043253
-0.027140
-0.043253
-0.043253
-0.002970
-0.011026
-0.051310
-0.027140
-0.011026
-0.011026
-0.011026
-0.035196
-0.059366
-0.002970
0.133993
0.254843
0.319296
0.351522
0.335409
0.335409
0.343466
0.327352
0.262899
0.206503
0.166220
0.166220
0.133993
0.053427
0.085653
0.037313
0.061483
0.021200
-0.002970
-0.002970
-0.019083
-0.027140
-0.011026
-0.043253
-0.027140
-0.011026
-0.043253
0.005087
-0.019083
-0.027140
-0.011026
-0.035196
-0.035196
0.005087
-0.019083
-0.019083
-0.002970
-0.027140
0.005087
0.013143
0.021200
0.013143
0.013143
-0.002970
-0.011026
-0.011026
0.021200
0.013143
-0.011026
-0.002970
-0.002970
-0.027140
0.005087
0.029257
-0.002970
-0.027140
-0.019083
-0.002970
0.005087
-0.011026
-0.002970
0.013143
0.005087
-0.027140
-0.172159
-0.276896
-0.333292
-0.397745
-0.405802
-0.405802
-0.389689
-0.373575
-0.284952
-0.220499
-0.212442
-0.147989
-0.123819
-0.067423
-0.083536
-0.099650
-0.059366
-0.027140
-0.011026
0.013143
0.029257
-0.035196
-0.002970
-0.002970
-0.002970
0.085653
0.246786
0.238729
0.238729
0.174276
0.182333
0.142050
0.061483
0.037313
0.013143
-0.002970
-0.019083
0.013143
-0.002970
-0.035196
-0.027140
-0.019083
-0.027140
-0.035196
-0.027140
-0.043253
-0.043253
-0.027140
-0.011026
-0.035196
-0.035196
-0.019083
-0.035196
-0.035196
-0.011026
-0.051310
-0.019083
-0.027140
-0.067423
-0.027140
-0.059366
-0.027140
-0.019083
-0.011026
0.125936
0.270956
0.327352
0.359579
0.335409
0.391806
0.343466
0.335409
0.287069
0.198446
0.182333
0.101767
0.069540
0.037313
0.045370
0.021200
0.021200
-0.011026
-0.011026
-0.019083
-0.051310
-0.051310
-0.027140
-0.011026
-0.043253
-0.051310
-0.035196
-0.019083
-0.043253
-0.043253
-0.027140
-0.002970
-0.059366
-0.051310
-0.043253
-0.027140
-0.011026
0.013143
0.005087
-0.011026
-0.027140
-0.019083
0.013143
-0.002970
0.005087
0.053427
-0.011026
0.013143
0.005087
0.061483
0.013143
-0.027140
0.013143
0.021200
0.021200
0.037313
0.013143
0.005087
0.021200
-0.011026
0.005087
0.005087
0.037313
-0.051310
-0.172159
-0.309122
-0.373575
-0.381632
-0.389689
-0.373575
-0.333292
-0.373575
-0.252726
-0.188273
-0.164103
-0.131876
-0.123819
-0.083536
-0.083536
-0.059366
-0.002970
-0.027140
-0.035196
-0.002970
-0.002970
-0.019083
-0.035196
0.005087
-0.027140
-0.011026
-0.019083
0.045370
-0.027140
0.005087
0.013143
-0.027140
0.005087
0.005087
-0.019083
-0.027140
-0.043253
-0.019083
-0.011026
-0.027140
-0.059366
-0.027140
-0.035196
-0.059366
-0.027140
-0.027140
-0.019083
-0.035196
-0.035196
-0.051310
-0.067423
-0.059366
-0.059366
-0.051310
0.005087
0.101767
0.190390
0.238729
0.214559
0.182333
0.158163
0.133993
0.093710
0.093710
0.198446
0.287069
0.343466
0.343466
0.407919
0.399862
0.367636
0.343466
0.279013
0.190390
0.158163
0.133993
0.077597
0.077597
0.045370
0.021200
0.029257
-0.011026
0.013143
-0.059366
-0.019083
0.013143
-0.019083
-0.043253
-0.051310
-0.043253
-0.035196
-0.051310
-0.019083
-0.002970
-0.019083
-0.011026
-0.019083
-0.011026
-0.027140
-0.027140
-0.011026
-0.011026
-0.002970
0.021200
-0.011026
-0.002970
-0.035196
0.013143
0.013143
0.013143
0.013143
-0.011026
0.013143
0.037313
0.021200
0.013143
-0.019083
0.005087
-0.002970
-0.011026
0.013143
0.005087
0.013143
0.029257
-0.002970
0.005087
-0.019083
-0.059366
-0.164103
-0.293009
-0.373575
-0.381632
-0.381632
-0.397745
-0.381632
-0.341349
-0.317179
-0.228556
-0.188273
-0.123819
-0.099650
-0.067423
-0.075480
-0.067423
-0.051310
-0.027140
-0.019083
-0.019083
0.013143
-0.011026
-0.019083
-0.002970
-0.002970
0.005087
-0.011026
0.005087
0.013143
-0.011026
0.021200
-0.011026
0.005087
-0.002970
0.005087
-0.002970
0.029257
-0.027140
-0.035196
-0.051310
-0.019083
-0.043253
-0.011026
-0.035196
-0.002970
-0.035196
-0.043253
-0.035196
-0.059366
-0.027140
-0.051310
-0.027140
-0.043253
-0.027140
-0.011026
-0.002970
-0.027140
-0.027140
-0.059366
-0.043253
-0.035196
-0.027140
-0.027140
0.045370
0.142050
0.295126
0.319296
0.343466
0.351522
0.351522
0.367636
0.319296
0.238729
0.190390
0.142050
0.085653
0.029257
0.077597
0.021200
0.053427
0.133993
0.222616
0.206503
0.222616
0.158163
0.166220
0.125936
0.109823
0.085653
0.013143
-0.027140
-0.019083
0.005087
-0.019083
-0.002970
-0.019083
-0.019083
0.013143
-0.002970
0.005087
0.013143
-0.019083
0.037313
-0.011026
-0.019083
-0.019083
-0.043253
-0.011026
-0.002970
0.013143
-0.019083
-0.011026
0.013143
-0.002970
0.021200
0.029257
-0.011026
-0.011026
-0.043253
0.021200
-0.011026
-0.035196
0.037313
-0.011026
0.013143
0.021200
0.005087
-0.043253
-0.180216
-0.309122
-0.341349
-0.341349
-0.373575
-0.365519
-0.373575
-0.349405
-0.268839
-0.260782
-0.188273
-0.147989
-0.091593
-0.083536
-0.075480
-0.051310
-0.059366
-0.035196
-0.019083
-0.019083
0.005087
-0.027140
-0.019083
0.005087
-0.002970
-0.011026
0.005087
-0.002970
-0.027140
-0.002970
-0.002970
-0.011026
-0.002970
0.013143
-0.002970
-0.019083
-0.019083
-0.019083
-0.002970
0.005087
-0.035196
-0.019083
-0.019083
-0.002970
-0.019083
-0.035196
-0.002970
-0.027140
-0.035196
-0.027140
-0.011026
-0.035196
-0.027140
-0.027140
-0.035196
-0.043253
-0.035196
-0.051310
-0.051310
-0.043253
-0.011026
-0.051310
-0.011026
0.013143
0.182333
0.262899
0.335409
0.351522
0.351522
0.359579
0.327352
0.343466
0.262899
0.214559
0.190390
0.142050
0.093710
0.109823
0.053427
0.045370
0.013143
0.021200
-0.027140
-0.043253
-0.011026
-0.051310
-0.027140
-0.027140
-0.043253
-0.035196
-0.019083
-0.035196
-0.035196
-0.035196
-0.027140
-0.035196
-0.019083
-0.011026
-0.002970
-0.019083
-0.019083
-0.011026
-0.051310
0.005087
-0.011026
-0.027140
-0.002970
-0.011026
0.117880
0.206503
0.262899
0.238729
0.214559
0.214559
0.133993
0.133993
0.117880
0.109823
0.069540
0.077597
0.061483
0.013143
0.005087
0.021200
0.037313
0.037313
-0.002970
-0.059366
-0.196329
-0.333292
-0.349405
-0.373575
-0.373575
-0.381632
-0.389689
-0.341349
-0.276896
-0.204386
-0.139933
-0.172159
-0.115763
-0.059366
-0.083536
-0.051310
-0.043253
-0.019083
-0.011026
-0.027140
-0.002970
-0.002970
-0.002970
-0.002970
-0.002970
-0.019083
0.013143
0.021200
-0.027140
0.005087
-0.035196
0.021200
-0.002970
-0.011026
-0.011026
-0.019083
-0.027140
-0.027140
-0.035196
-0.027140
0.005087
-0.051310
-0.011026
-0.035196
-0.019083
-0.027140
0.005087
-0.011026
-0.035196
-0.002970
-0.019083
-0.027140
-0.059366
-0.043253
-0.019083
-0.019083
-0.019083
-0.027140
-0.027140
-0.051310
-0.011026
-0.043253
-0.027140
0.045370
0.198446
0.303183
0.335409
0.335409
0.343466
0.375692
0.343466
0.335409
0.246786
0.182333
0.150106
0.085653
0.085653
0.085653
0.085653
0.029257
0.005087
-0.002970
-0.043253
-0.019083
-0.011026
0.005087
-0.059366
-0.019083
-0.011026
-0.035196
0.005087
-0.019083
-0.019083
-0.035196
-0.035196
-0.011026
-0.002970
-0.002970
-0.002970
-0.011026
-0.011026
-0.011026
-0.011026
0.021200
-0.002970
0.013143
0.021200
0.005087
0.013143
0.037313
-0.027140
0.029257
0.005087
-0.002970
0.005087
0.005087
0.021200
0.029257
-0.011026
-0.011026
-0.002970
-0.011026
0.005087
-0.019083
-0.019083
0.021200
-0.002970
-0.067423
-0.172159
-0.357462
-0.349405
-0.252726
-0.204386
-0.147989
-0.139933
-0.123819
