-1.399125
-1.157426
-0.617631
-0.311478
-0.182572
-0.093949
-0.102006
-0.013383
-0.021439
-0.045609
0.099410
0.196090
0.220260
0.179977
0.196090
0.171920
0.107467
0.123580
0.171920
0.316940
0.478072
0.470016
0.518356
0.566695
0.582809
0.542525
0.470016
0.445846
0.453902
0.445846
0.373336
0.341109
0.333053
0.365279
0.413619
0.381393
0.308883
0.292770
0.244430
0.220260
0.188033
0.163863
0.163863
0.123580
0.083297
0.099410
0.059127
0.034957
0.026900
-0.021439
0.002731
-0.037553
-0.013383
0.002731
-0.021439
-0.005326
-0.037553
0.002731
-0.021439
-0.013383
0.043014
-0.029496
-0.021439
-0.005326
-0.029496
0.010787
0.026900
0.034957
0.026900
0.043014
0.026900
0.043014
0.051070
0.043014
0.018844
0.018844
0.002731
0.010787
0.010787
0.034957
-0.005326
0.051070
0.002731
0.002731
0.010787
-0.021439
-0.230912
-0.480668
-0.641801
-0.690141
-0.609574
-0.617631
-0.585404
-0.561234
-0.569291
-0.529008
-0.504838
-0.480668
-0.496781
-0.480668
-0.408158
-0.343705
-0.263139
-0.230912
-0.247025
-0.158402
-0.174516
-0.182572
-0.142289
-0.102006
-0.069779
-0.069779
-0.061723
-0.021439
-0.005326
-0.005326
0.018844
0.018844
-0.013383
-0.013383
-0.013383
0.034957
-0.021439
-0.021439
-0.013383
0.034957
0.010787
0.026900
-0.013383
-0.005326
0.010787
0.043014
0.002731
-0.005326
-0.021439
0.002731
-0.013383
0.002731
0.002731
-0.029496
-0.013383
0.002731
-0.005326
-0.021439
-0.005326
-0.013383
0.018844
-0.029496
-0.045609
-0.029496
0.155807
0.421676
0.534469
0.615035
0.598922
0.534469
0.510299
0.542525
0.494186
0.429733
0.405563
0.381393
0.429733
0.494186
0.534469
0.526412
0.453902
0.437789
0.349166
0.308883
0.244430
0.179977
0.155807
0.059127
0.067184
0.034957
-0.013383
-0.013383
-0.005326
-0.013383
-0.005326
-0.045609
-0.021439
-0.013383
-0.037553
-0.029496
-0.037553
-0.013383
-0.029496
-0.005326
-0.005326
0.010787
0.018844
0.034957
-0.005326
-0.005326
0.010787
0.002731
0.051070
0.026900
0.026900
0.034957
0.051070
0.043014
0.026900
0.010787
0.051070
0.002731
0.010787
0.018844
0.026900
0.010787
-0.005326
-0.005326
0.002731
-0.021439
-0.166459
-0.335648
-0.464555
-0.432328
-0.512894
-0.496781
-0.480668
-0.456498
-0.448441
-0.383988
-0.448441
-0.383988
-0.327592
-0.287308
-0.174516
-0.134232
-0.126176
-0.118119
-0.102006
-0.102006
-0.077836
-0.021439
-0.029496
0.002731
-0.021439
0.018844
0.010787
0.018844
-0.005326
0.002731
-0.021439
-0.005326
0.018844
-0.021439
-0.005326
-0.029496
0.002731
-0.021439
-0.021439
-0.021439
-0.013383
-0.005326
-0.021439
-0.005326
0.018844
-0.005326
-0.013383
-0.029496
-0.013383
-0.021439
0.002731
-0.029496
-0.045609
-0.029496
-0.013383
-0.029496
-0.021439
-0.013383
-0.021439
-0.005326
-0.029496
-0.045609
0.002731
-0.005326
-0.037553
-0.029496
0.188033
0.324996
0.389449
0.429733
0.421676
0.397506
0.373336
0.381393
0.381393
0.405563
0.268600
0.212203
0.171920
0.123580
0.139693
0.059127
0.043014
0.059127
0.018844
-0.005326
0.010787
-0.005326
-0.037553
-0.045609
-0.029496
-0.037553
-0.029496
-0.021439
-0.053666
-0.061723
-0.045609
-0.045609
-0.053666
-0.053666
-0.061723
-0.021439
-0.045609
0.107467
0.212203
0.220260
0.244430
0.236373
0.220260
0.179977
0.163863
0.123580
0.067184
0.091354
0.026900
0.018844
0.018844
0.018844
0.018844
0.018844
0.034957
0.010787
0.026900
0.010787
0.043014
-0.029496
0.002731
0.002731
0.018844
-0.013383
-0.182572
-0.303422
-0.416215
-0.456498
-0.448441
-0.416215
-0.400101
-0.400101
-0.424271
-0.383988
-0.311478
-0.230912
-0.206742
-0.142289
-0.077836
-0.110062
-0.102006
-0.085892
-0.021439
-0.029496
-0.013383
-0.013383
0.002731
-0.005326
0.034957
0.010787
0.002731
0.002731
-0.005326
0.010787
0.002731
-0.021439
-0.005326
-0.021439
0.010787
-0.021439
-0.013383
0.018844
0.034957
-0.013383
0.002731
0.026900
-0.013383
0.002731
0.002731
-0.013383
-0.029496
-0.005326
0.010787
-0.029496
-0.021439
-0.013383
-0.013383
0.002731
-0.021439
0.002731
-0.021439
-0.005326
0.010787
0.002731
-0.045609
-0.029496
-0.053666
-0.029496
0.075240
0.252486
0.365279
0.437789
0.405563
0.397506
0.405563
0.373336
0.373336
0.333053
0.292770
0.212203
0.179977
0.155807
0.115524
0.091354
0.059127
0.051070
0.026900
0.026900
-0.005326
-0.029496
-0.005326
-0.013383
-0.021439
-0.013383
-0.029496
-0.029496
-0.029496
-0.013383
-0.021439
-0.021439
0.010787
0.018844
-0.045609
-0.021439
-0.013383
-0.013383
-0.005326
-0.021439
-0.005326
-0.005326
0.010787
0.010787
-0.005326
-0.005326
0.010787
0.010787
-0.021439
0.010787
0.010787
0.026900
0.018844
-0.029496
-0.021439
-0.021439
-0.037553
0.002731
0.002731
0.026900
0.091354
0.220260
0.260543
0.244430
0.139693
-0.069779
-0.206742
-0.295365
-0.311478
-0.319535
-0.367875
-0.383988
-0.351762
-0.319535
-0.247025
-0.247025
-0.166459
-0.126176
-0.126176
-0.126176
-0.102006
-0.093949
-0.077836
-0.029496
-0.013383
0.026900
-0.021439
-0.013383
-0.037553
-0.005326
0.010787
-0.013383
-0.005326
-0.005326
0.010787
-0.005326
0.051070
-0.021439
0.010787
-0.005326
0.018844
-0.013383
0.010787
-0.037553
-0.005326
-0.021439
-0.021439
0.018844
-0.021439
-0.013383
0.002731
-0.029496
-0.005326
-0.053666
-0.013383
-0.005326
-0.013383
-0.005326
-0.029496
-0.069779
-0.005326
0.010787
-0.021439
-0.013383
-0.013383
-0.013383
-0.013383
-0.037553
0.026900
0.196090
0.308883
0.365279
0.421676
0.357223
0.365279
0.357223
0.389449
0.324996
0.260543
0.228317
0.155807
0.131637
0.099410
0.107467
0.043014
0.018844
0.026900
-0.013383
0.010787
-0.005326
-0.045609
-0.037553
-0.029496
-0.061723
-0.053666
-0.005326
-0.037553
0.018844
-0.021439
-0.005326
-0.021439
-0.029496
-0.013383
-0.021439
-0.005326
0.018844
-0.013383
-0.013383
0.034957
-0.005326
0.018844
0.010787
-0.005326
-0.005326
0.010787
0.034957
0.002731
0.034957
0.018844
0.059127
0.059127
-0.013383
0.018844
0.026900
0.043014
0.034957
0.034957
0.018844
0.018844
0.010787
0.010787
0.034957
-0.037553
-0.247025
-0.343705
-0.424271
-0.432328
-0.432328
-0.416215
-0.392045
-0.432328
-0.351762
-0.295365
-0.271195
-0.150346
-0.150346
-0.150346
-0.110062
-0.110062
-0.093949
-0.077836
-0.085892
-0.037553
-0.021439
-0.005326
0.002731
-0.029496
-0.005326
0.139693
0.236373
0.220260
0.220260
0.196090
0.212203
0.163863
0.139693
0.099410
0.043014
0.018844
0.018844
-0.021439
0.018844
0.026900
0.010787
-0.013383
0.018844
-0.021439
0.010787
-0.029496
-0.021439
-0.005326
0.018844
-0.029496
-0.069779
-0.013383
-0.013383
-0.053666
-0.045609
-0.021439
-0.037553
-0.037553
-0.029496
-0.029496
-0.029496
-0.037553
-0.061723
0.034957
0.196090
0.308883
0.373336
0.381393
0.373336
0.324996
0.365279
0.349166
0.333053
0.300826
0.171920
0.171920
0.123580
0.091354
0.059127
0.051070
0.026900
0.067184
0.010787
-0.021439
0.026900
-0.005326
-0.029496
-0.061723
-0.037553
-0.053666
-0.053666
-0.037553
-0.021439
-0.029496
-0.029496
-0.021439
0.010787
-0.005326
-0.005326
-0.029496
-0.021439
-0.045609
-0.013383
-0.013383
-0.005326
-0.013383
-0.013383
0.034957
-0.013383
0.002731
0.018844
0.010787
0.002731
0.002731
-0.005326
0.002731
-0.005326
0.010787
0.018844
0.018844
0.059127
0.010787
-0.005326
0.026900
0.002731
-0.013383
0.002731
-0.021439
-0.238969
-0.383988
-0.424271
-0.424271
-0.408158
-0.392045
-0.375932
-0.375932
-0.335648
-0.287308
-0.214799
-0.190629
-0.158402
-0.118119
-0.093949
-0.077836
-0.053666
-0.053666
-0.037553
0.018844
-0.005326
-0.037553
-0.021439
-0.005326
0.002731
0.010787
0.010787
0.010787
-0.005326
-0.005326
0.018844
-0.013383
-0.029496
-0.021439
-0.005326
-0.021439
-0.029496
-0.021439
-0.029496
-0.021439
-0.045609
-0.053666
-0.037553
-0.037553
-0.037553
-0.013383
-0.053666
-0.053666
-0.069779
-0.037553
0.059127
0.188033
0.196090
0.163863
0.188033
0.139693
0.139693
0.155807
0.075240
0.043014
0.034957
-0.005326
0.002731
0.034957
0.228317
0.316940
0.405563
0.405563
0.389449
0.397506
0.373336
0.373336
0.324996
0.300826
0.212203
0.155807
0.123580
0.123580
0.083297
0.043014
0.026900
-0.005326
-0.005326
-0.013383
-0.021439
-0.029496
-0.021439
0.010787
-0.029496
-0.037553
-0.005326
-0.005326
-0.053666
-0.021439
-0.021439
-0.029496
-0.037553
0.002731
-0.013383
-0.005326
-0.037553
-0.021439
-0.005326
0.026900
0.043014
0.010787
0.002731
0.010787
0.010787
0.034957
0.018844
0.010787
0.002731
0.018844
0.026900
0.067184
-0.005326
0.043014
0.051070
0.018844
0.051070
0.018844
0.026900
-0.029496
0.018844
-0.021439
0.018844
-0.085892
-0.238969
-0.383988
-0.416215
-0.400101
-0.432328
-0.343705
-0.375932
-0.383988
-0.343705
-0.295365
-0.247025
-0.142289
-0.150346
-0.102006
-0.085892
-0.077836
-0.069779
-0.029496
-0.029496
-0.005326
-0.005326
-0.013383
0.010787
-0.005326
-0.029496
0.026900
-0.005326
0.043014
0.002731
0.002731
0.002731
-0.005326
-0.013383
-0.029496
-0.029496
0.002731
-0.021439
-0.005326
-0.013383
-0.045609
-0.061723
-0.045609
0.002731
-0.005326
-0.013383
-0.013383
-0.029496
-0.021439
-0.037553
-0.045609
-0.029496
-0.037553
-0.029496
-0.005326
-0.029496
-0.045609
-0.013383
-0.005326
-0.037553
-0.037553
-0.037553
-0.061723
-0.045609
0.043014
0.212203
0.333053
0.365279
0.357223
0.357223
0.389449
0.381393
0.357223
0.308883
0.244430
0.171920
0.155807
0.115524
0.091354
0.188033
0.276656
0.292770
0.260543
0.204147
0.179977
0.155807
0.155807
0.099410
0.083297
0.083297
0.034957
0.010787
-0.005326
0.002731
-0.013383
-0.021439
0.002731
0.026900
-0.061723
-0.021439
-0.029496
0.010787
0.010787
0.002731
0.002731
0.018844
-0.021439
0.043014
0.002731
0.010787
-0.021439
0.002731
0.002731
-0.005326
0.018844
0.010787
-0.037553
0.026900
0.010787
0.002731
0.010787
0.018844
-0.021439
0.010787
0.051070
-0.005326
0.010787
0.026900
-0.085892
-0.247025
-0.383988
-0.424271
-0.416215
-0.424271
-0.367875
-0.400101
-0.383988
-0.343705
-0.319535
-0.198685
-0.174516
-0.166459
-0.150346
-0.110062
-0.069779
-0.061723
-0.045609
-0.037553
-0.029496
-0.005326
0.026900
-0.013383
0.010787
-0.021439
-0.029496
0.002731
0.002731
0.010787
-0.005326
0.018844
0.010787
-0.021439
0.010787
-0.021439
-0.029496
-0.021439
0.002731
-0.005326
-0.045609
-0.029496
-0.013383
-0.013383
-0.029496
-0.029496
-0.029496
-0.037553
-0.005326
-0.013383
-0.021439
0.018844
-0.013383
-0.021439
-0.013383
-0.005326
-0.013383
-0.021439
-0.053666
-0.021439
0.002731
-0.045609
-0.005326
-0.021439
0.043014
0.220260
0.341109
0.413619
0.421676
0.373336
0.373336
0.365279
0.341109
0.349166
0.252486
0.196090
0.131637
0.123580
0.083297
0.075240
0.043014
0.018844
0.026900
-0.029496
-0.013383
0.010787
-0.037553
-0.013383
-0.045609
-0.021439
-0.045609
-0.013383
-0.053666
-0.013383
-0.021439
-0.029496
-0.005326
-0.013383
-0.037553
-0.037553
-0.021439
0.026900
0.099410
0.204147
0.252486
0.268600
0.212203
0.196090
0.147750
0.139693
0.083297
0.083297
0.026900
0.018844
0.034957
0.059127
0.018844
0.034957
0.002731
0.018844
0.018844
-0.005326
0.010787
-0.013383
-0.005326
0.002731
0.026900
-0.013383
-0.061723
-0.238969
-0.359818
-0.408158
-0.432328
-0.383988
-0.392045
-0.383988
-0.383988
-0.327592
-0.271195
-0.230912
-0.174516
-0.142289
-0.150346
-0.085892
-0.126176
-0.077836
-0.037553
-0.053666
-0.029496
-0.005326
-0.013383
0.002731
-0.005326
-0.021439
-0.029496
-0.029496
-0.013383
-0.021439
-0.021439
0.010787
-0.013383
-0.005326
-0.021439
-0.029496
-0.021439
-0.013383
0.002731
-0.037553
0.010787
-0.013383
-0.021439
-0.029496
0.002731
-0.037553
-0.013383
-0.013383
-0.029496
0.002731
-0.037553
-0.029496
-0.037553
-0.021439
-0.037553
-0.029496
-0.045609
-0.029496
-0.013383
-0.037553
-0.029496
-0.021439
-0.013383
-0.045609
0.059127
0.244430
0.324996
0.405563
0.429733
0.405563
0.373336
0.405563
0.357223
0.333053
0.252486
0.212203
0.163863
0.155807
0.083297
0.083297
0.043014
0.059127
0.026900
0.034957
-0.013383
-0.037553
-0.021439
-0.037553
-0.021439
-0.037553
-0.013383
-0.037553
-0.021439
-0.013383
-0.045609
-0.029496
-0.005326
-0.013383
0.002731
0.002731
-0.005326
0.010787
0.002731
-0.037553
-0.005326
-0.029496
-0.037553
0.018844
-0.029496
-0.013383
0.018844
-0.005326
-0.013383
0.010787
0.034957
-0.021439
-0.005326
-0.005326
-0.013383
0.010787
-0.013383
-0.013383
-0.021439
0.002731
-0.021439
-0.029496
-0.005326
0.026900
-0.093949
-0.311478
-0.392045
-0.400101
-0.255082
-0.142289
-0.174516
-0.158402
-0.158402
-0.158402
-0.093949
-0.077836
-0.118119
-0.118119
-0.093949
-0.110062
-0.053666
-0.061723
-0.061723
-0.013383
-0.021439
-0.021439
-0.005326
-0.005326
0.010787
0.010787
0.002731
-0.021439
0.026900
-0.013383
0.018844
-0.005326
-0.013383
-0.005326
0.002731
-0.005326
0.002731
-0.005326
0.026900
0.002731
-0.037553
-0.005326
-0.045609
-0.029496
-0.037553
-0.029496
-0.021439
-0.029496
-0.005326
-0.037553
-0.021439
-0.053666
-0.029496
-0.021439
-0.069779
-0.021439
-0.045609
-0.037553
-0.013383
-0.045609
-0.029496
-0.021439
-0.061723
-0.045609
0.067184
0.212203
0.357223
0.389449
0.397506
0.413619
0.373336
0.357223
0.373336
0.308883
0.260543
0.179977
0.188033
0.099410
0.099410
0.051070
0.067184
0.051070
0.002731
-0.013383
-0.013383
-0.013383
-0.013383
-0.037553
-0.021439
-0.021439
0.002731
-0.037553
-0.029496
-0.029496
-0.013383
-0.005326
-0.021439
-0.037553
-0.029496
-0.013383
-0.013383
0.010787
0.002731
-0.013383
0.018844
-0.005326
-0.013383
-0.013383
0.002731
-0.005326
-0.005326
-0.005326
0.010787
0.010787
-0.013383
0.018844
0.018844
0.018844
-0.005326
-0.021439
0.010787
-0.013383
-0.013383
-0.013383
0.043014
0.034957
0.059127
0.010787
-0.069779
-0.279252
-0.383988
-0.408158
-0.400101
-0.392045
-0.383988
-0.416215
-0.359818
-0.335648
-0.263139
-0.198685
-0.166459
-0.174516
-0.150346
-0.077836
-0.093949
-0.061723
-0.045609
-0.045609
-0.005326
-0.029496
0.010787
-0.013383
-0.005326
-0.005326
-0.029496
-0.029496
0.026900
0.155807
0.236373
0.244430
0.236373
0.236373
0.204147
0.163863
0.155807
0.115524
0.083297
0.067184
0.026900
0.002731
-0.005326
-0.029496
-0.037553
-0.021439
-0.021439
-0.013383
0.002731
-0.029496
-0.021439
-0.029496
-0.045609
-0.053666
-0.021439
-0.013383
-0.045609
-0.021439
-0.037553
-0.021439
-0.021439
-0.021439
-0.053666
-0.037553
0.067184
0.284713
0.349166
0.389449
0.381393
0.373336
0.397506
0.365279
0.341109
0.324996
0.220260
0.236373
0.147750
0.107467
0.115524
0.059127
0.059127
0.010787
-0.005326
-0.005326
-0.037553
-0.021439
-0.029496
-0.053666
-0.021439
-0.021439
-0.037553
-0.013383
-0.045609
-0.021439
0.010787
-0.045609
-0.013383
-0.021439
-0.005326
-0.005326
-0.005326
-0.021439
-0.021439
-0.021439
0.002731
-0.005326
-0.005326
-0.013383
0.034957
0.002731
0.010787
-0.013383
0.018844
0.018844
-0.013383
0.010787
0.010787
0.010787
0.026900
-0.005326
0.026900
0.010787
-0.005326
-0.013383
0.002731
0.010787
0.010787
-0.021439
-0.085892
-0.247025
-0.383988
-0.416215
-0.400101
-0.392045
-0.375932
-0.392045
-0.408158
-0.327592
-0.279252
-0.182572
-0.190629
-0.174516
-0.134232
-0.126176
-0.110062
-0.061723
-0.029496
0.002731
-0.045609
-0.013383
-0.005326
0.043014
-0.005326
0.002731
-0.021439
-0.029496
-0.005326
-0.021439
0.002731
0.010787
0.002731
-0.013383
-0.037553
-0.005326
-0.029496
-0.037553
-0.021439
-0.037553
-0.013383
-0.037553
-0.021439
-0.029496
-0.021439
-0.053666
-0.037553
-0.021439
-0.053666
-0.021439
-0.045609
-0.005326
-0.029496
-0.061723
-0.061723
-0.053666
-0.029496
0.099410
0.204147
0.196090
0.228317
0.188033
0.147750
0.123580
0.212203
0.349166
0.405563
0.461959
0.494186
0.453902
0.413619
0.389449
0.365279
0.276656
0.220260
0.179977
0.147750
0.139693
0.099410
0.075240
0.043014
0.043014
0.002731
0.002731
-0.013383
-0.029496
-0.037553
-0.077836
-0.037553
-0.037553
-0.053666
-0.037553
-0.021439
-0.037553
-0.021439
-0.021439
-0.005326
0.034957
-0.029496
0.026900
0.034957
0.010787
0.002731
0.010787
0.026900
0.002731
-0.021439
0.043014
-0.013383
-0.013383
-0.005326
0.051070
0.026900
0.026900
-0.013383
-0.037553
0.002731
0.034957
0.010787
0.018844
-0.029496
0.034957
0.010787
-0.013383
0.018844
0.002731
0.051070
0.018844
-0.110062
-0.238969
-0.392045
-0.416215
-0.408158
-0.416215
-0.400101
-0.367875
-0.367875
-0.311478
-0.247025
-0.214799
-0.190629
-0.158402
-0.102006
-0.110062
-0.085892
-0.053666
-0.069779
-0.029496
-0.029496
0.002731
0.018844
-0.013383
-0.029496
0.026900
0.002731
-0.013383
0.026900
0.010787
-0.021439
-0.013383
-0.005326
-0.013383
0.010787
-0.013383
0.002731
0.010787
-0.013383
-0.013383
-0.005326
0.010787
0.018844
-0.037553
-0.021439
-0.021439
-0.005326
-0.029496
-0.021439
-0.037553
-0.037553
-0.021439
-0.021439
-0.029496
0.002731
-0.037553
-0.045609
-0.029496
-0.029496
-0.069779
-0.021439
-0.037553
-0.029496
-0.037553
0.059127
0.244430
0.349166
0.405563
0.381393
0.389449
0.373336
0.357223
0.333053
0.300826
0.260543
0.179977
0.163863
0.099410
0.091354
0.051070
0.163863
0.260543
0.244430
0.244430
0.171920
0.147750
0.131637
0.059127
0.051070
-0.005326
0.018844
-0.021439
-0.037553
-0.005326
-0.005326
-0.029496
0.002731
-0.053666
-0.045609
0.010787
-0.037553
0.010787
-0.013383
-0.029496
0.002731
-0.021439
0.002731
-0.037553
-0.021439
-0.013383
-0.005326
-0.005326
0.002731
-0.013383
-0.029496
0.002731
-0.005326
0.002731
-0.005326
0.018844
0.002731
0.010787
0.018844
-0.013383
0.010787
0.018844
-0.021439
0.002731
-0.085892
-0.295365
-0.400101
-0.400101
-0.416215
-0.392045
-0.400101
-0.400101
-0.375932
-0.319535
-0.255082
-0.206742
-0.190629
-0.150346
-0.126176
-0.110062
-0.102006
-0.069779
-0.013383
-0.029496
0.002731
-0.021439
-0.005326
0.018844
0.002731
0.034957
0.026900
-0.005326
0.010787
0.002731
0.010787
-0.021439
-0.045609
0.010787
0.002731
-0.005326
-0.021439
-0.021439
-0.013383
-0.037553
-0.013383
-0.029496
0.002731
-0.037553
-0.037553
-0.037553
-0.037553
-0.021439
-0.053666
-0.029496
-0.037553
0.010787
-0.029496
-0.037553
-0.029496
-0.021439
-0.005326
-0.037553
-0.037553
-0.037553
-0.053666
-0.021439
-0.045609
-0.045609
0.067184
0.252486
0.365279
0.405563
0.413619
0.365279
0.357223
0.341109
0.316940
0.316940
0.228317
0.179977
0.179977
0.083297
0.099410
0.075240
0.067184
0.026900
0.018844
-0.005326
-0.013383
-0.021439
-0.013383
-0.037553
-0.029496
-0.037553
-0.045609
-0.053666
-0.053666
-0.029496
-0.021439
-0.053666
-0.045609
-0.013383
0.010787
-0.037553
-0.005326
0.002731
-0.013383
-0.029496
-0.021439
-0.005326
-0.005326
-0.021439
-0.037553
0.034957
0.147750
0.236373
0.236373
0.228317
0.204147
0.196090
0.188033
0.204147
0.123580
0.115524
0.059127
0.059127
0.018844
0.018844
0.002731
0.002731
0.034957
0.026900
-0.118119
-0.271195
-0.359818
-0.375932
-0.416215
-0.400101
-0.424271
-0.343705
-0.351762
-0.335648
-0.238969
-0.230912
-0.174516
-0.174516
-0.126176
-0.085892
-0.118119
-0.045609
-0.077836
-0.021439
-0.021439
0.010787
0.018844
-0.013383
0.002731
0.002731
0.002731
-0.005326
-0.005326
-0.021439
-0.005326
-0.013383
-0.013383
-0.013383
-0.029496
-0.013383
-0.021439
0.002731
-0.021439
-0.005326
0.002731
-0.029496
-0.045609
-0.053666
-0.037553
-0.045609
-0.061723
-0.037553
-0.029496
-0.021439
-0.053666
-0.029496
-0.045609
-0.021439
-0.029496
-0.005326
-0.013383
-0.013383
-0.005326
-0.061723
-0.037553
-0.053666
-0.045609
-0.021439
0.091354
0.292770
0.381393
0.397506
0.381393
0.381393
0.381393
0.397506
0.373336
0.316940
0.220260
0.171920
0.171920
0.091354
0.059127
0.059127
0.059127
-0.005326
0.010787
0.002731
-0.005326
-0.013383
-0.013383
-0.029496
-0.053666
-0.037553
-0.037553
0.018844
-0.029496
-0.037553
-0.029496
-0.029496
-0.037553
-0.037553
-0.021439
-0.013383
-0.029496
-0.021439
-0.021439
0.002731
0.010787
0.002731
-0.021439
0.010787
0.026900
0.018844
-0.021439
0.010787
-0.013383
-0.013383
0.018844
-0.013383
0.002731
-0.013383
0.002731
-0.005326
0.002731
-0.013383
-0.013383
-0.005326
0.002731
-0.029496
0.010787
0.002731
-0.134232
-0.311478
-0.424271
-0.456498
-0.424271
-0.392045
-0.375932
-0.303422
-0.166459
-0.077836
-0.005326
0.018844
0.026900
0.002731
-0.005326
0.010787
-0.029496
0.010787
-0.013383
0.002731
0.002731
-0.029496
-0.005326
-0.013383
0.002731
0.002731
0.010787
-0.029496
-0.029496
0.002731
0.010787
-0.005326
0.002731
-0.013383
-0.029496
-0.005326
-0.021439
0.010787
-0.029496
-0.005326
-0.013383
-0.013383
-0.029496
-0.029496
-0.029496
-0.029496
-0.061723
-0.037553
-0.037553
-0.045609
-0.013383
-0.069779
-0.021439
-0.029496
-0.029496
-0.061723
-0.045609
-0.021439
-0.045609
-0.037553
-0.045609
-0.037553
-0.053666
-0.005326
0.075240
0.260543
0.389449
0.381393
0.357223
0.365279
0.373336
0.365279
0.333053
0.292770
0.252486
0.155807
0.139693
0.099410
0.083297
0.083297
0.051070
0.026900
0.010787
-0.029496
-0.037553
0.002731
-0.045609
-0.013383
-0.037553
-0.029496
-0.013383
-0.053666
-0.005326
-0.029496
-0.013383
-0.029496
-0.013383
0.010787
-0.021439
0.026900
-0.013383
0.010787
0.018844
0.026900
-0.005326
0.002731
0.018844
0.010787
-0.005326
0.002731
0.026900
-0.021439
0.002731
-0.013383
0.018844
0.002731
-0.005326
0.026900
0.059127
-0.005326
0.026900
0.002731
0.034957
0.026900
0.034957
0.002731
0.034957
-0.021439
-0.134232
-0.295365
-0.359818
-0.416215
-0.408158
-0.416215
-0.408158
-0.392045
-0.359818
-0.319535
-0.271195
-0.214799
-0.158402
-0.174516
-0.118119
-0.093949
-0.077836
-0.029496
-0.029496
-0.021439
-0.037553
0.002731
-0.005326
0.002731
0.018844
-0.029496
-0.005326
-0.021439
-0.013383
-0.045609
0.002731
-0.013383
-0.045609
-0.021439
-0.053666
0.067184
0.220260
0.244430
0.204147
0.163863
0.179977
0.131637
0.139693
0.091354
0.059127
0.034957
0.010787
-0.021439
-0.045609
-0.029496
-0.037553
-0.013383
-0.021439
-0.037553
-0.037553
-0.045609
-0.021439
-0.029496
-0.045609
-0.021439
-0.021439
-0.037553
-0.053666
-0.029496
0.123580
0.292770
0.389449
0.405563
0.389449
0.333053
0.373336
0.397506
0.349166
0.276656
0.204147
0.163863
0.171920
0.131637
0.059127
0.075240
0.043014
0.026900
0.010787
-0.013383
-0.013383
-0.005326
-0.045609
-0.029496
-0.005326
-0.021439
-0.005326
-0.021439
-0.061723
-0.013383
-0.013383
-0.037553
-0.021439
-0.029496
-0.037553
0.002731
-0.013383
0.002731
0.018844
-0.029496
-0.021439
-0.021439
-0.013383
0.010787
0.010787
0.002731
0.002731
-0.013383
0.034957
-0.013383
0.026900
-0.005326
-0.005326
0.002731
0.018844
0.034957
-0.005326
0.026900
-0.005326
0.026900
-0.013383
-0.029496
0.018844
-0.021439
-0.134232
-0.319535
-0.408158
-0.408158
-0.416215
-0.392045
-0.392045
-0.392045
-0.367875
-0.311478
-0.238969
-0.166459
-0.166459
-0.134232
-0.134232
-0.102006
-0.037553
-0.053666
-0.045609
0.002731
0.026900
0.002731
0.010787
-0.013383
0.034957
-0.021439
0.002731
0.002731
-0.005326
-0.013383
-0.013383
-0.013383
0.002731
-0.005326
0.018844
0.002731
-0.013383
-0.013383
-0.021439
-0.013383
-0.013383
-0.053666
-0.029496
-0.021439
-0.045609
-0.045609
-0.013383
-0.045609
-0.053666
-0.021439
-0.029496
-0.029496
-0.053666
-0.029496
-0.013383
-0.053666
-0.021439
-0.037553
0.115524
0.155807
0.212203
0.163863
0.155807
0.131637
0.212203
0.381393
0.461959
0.461959
0.453902
0.405563
0.397506
0.365279
0.333053
0.292770
0.220260
0.196090
0.139693
0.091354
0.067184
0.051070
0.043014
0.034957
-0.005326
0.018844
-0.029496
-0.013383
-0.037553
-0.037553
-0.045609
-0.021439
-0.021439
-0.005326
-0.045609
-0.045609
-0.045609
-0.005326
-0.037553
-0.021439
-0.005326
-0.037553
-0.029496
-0.005326
-0.013383
-0.013383
-0.005326
0.010787
0.010787
0.018844
-0.021439
0.010787
-0.037553
0.018844
0.010787
-0.013383
0.018844
0.018844
0.002731
-0.005326
-0.005326
0.010787
0.010787
-0.021439
-0.013383
-0.021439
0.002731
0.026900
-0.013383
0.010787
-0.142289
-0.327592
-0.383988
-0.392045
-0.416215
-0.416215
-0.392045
-0.408158
-0.359818
-0.319535
-0.255082
-0.206742
-0.158402
-0.118119
-0.110062
-0.093949
-0.110062
-0.053666
-0.021439
-0.013383
-0.005326
-0.021439
-0.005326
0.026900
0.010787
-0.005326
-0.021439
-0.005326
0.002731
0.002731
-0.005326
-0.005326
0.010787
-0.013383
-0.021439
-0.021439
-0.029496
-0.021439
-0.005326
-0.021439
0.018844
-0.013383
-0.045609
-0.021439
-0.029496
-0.053666
-0.029496
-0.013383
-0.021439
0.018844
-0.045609
-0.045609
-0.005326
-0.029496
-0.029496
-0.037553
-0.013383
-0.021439
0.018844
-0.053666
-0.005326
-0.013383
-0.037553
-0.029496
0.091354
0.300826
0.397506
0.373336
0.397506
0.357223
0.373336
0.381393
0.324996
0.260543
0.228317
0.163863
0.131637
0.107467
0.091354
0.043014
0.051070
0.034957
-0.005326
-0.021439
-0.045609
-0.045609
-0.069779
-0.013383
0.107467
0.204147
0.212203
0.220260
0.171920
0.163863
0.131637
0.091354
0.083297
0.091354
0.059127
0.018844
-0.005326
0.002731
0.010787
0.010787
-0.013383
-0.021439
-0.005326
-0.013383
0.018844
-0.005326
0.034957
0.002731
-0.013383
-0.029496
0.026900
0.002731
0.026900
-0.021439
-0.029496
0.002731
-0.013383
-0.005326
-0.021439
-0.021439
0.002731
-0.005326
0.034957
-0.013383
-0.158402
-0.327592
-0.392045
-0.416215
-0.424271
-0.400101
-0.351762
-0.424271
-0.383988
-0.279252
-0.247025
-0.174516
-0.134232
-0.110062
-0.110062
-0.077836
-0.102006
-0.069779
-0.029496
-0.029496
0.002731
-0.029496
0.002731
-0.037553
0.010787
0.010787
-0.005326
-0.021439
0.002731
0.010787
-0.021439
-0.021439
-0.045609
-0.005326
-0.013383
0.018844
-0.013383
-0.005326
-0.005326
-0.029496
0.010787
-0.021439
-0.013383
-0.029496
-0.029496
-0.013383
-0.021439
-0.045609
-0.029496
-0.029496
-0.037553
-0.053666
-0.021439
-0.021439
-0.013383
-0.029496
-0.037553
-0.021439
-0.037553
-0.029496
-0.037553
-0.005326
-0.013383
-0.005326
0.131637
0.300826
0.381393
0.413619
0.389449
0.349166
0.373336
0.349166
0.333053
0.284713
0.212203
0.155807
0.131637
0.107467
0.083297
0.075240
0.051070
0.034957
-0.005326
-0.013383
-0.005326
-0.061723
-0.053666
-0.037553
-0.029496
-0.021439
-0.013383
-0.013383
-0.045609
-0.021439
-0.021439
-0.037553
-0.013383
-0.013383
-0.021439
0.026900
-0.013383
-0.005326
-0.005326
0.002731
-0.005326
-0.005326
-0.005326
0.010787
0.002731
0.010787
-0.005326
-0.013383
-0.013383
0.139693
0.212203
0.276656
0.276656
0.220260
0.196090
0.188033
0.147750
0.123580
0.131637
0.051070
0.002731
0.034957
0.018844
0.010787
-0.150346
-0.343705
-0.408158
-0.432328
-0.416215
-0.383988
-0.359818
-0.416215
-0.367875
-0.303422
-0.222855
-0.166459
-0.182572
-0.110062
-0.118119
-0.110062
-0.102006
-0.085892
-0.037553
-0.005326
0.010787
-0.013383
0.002731
0.002731
-0.013383
0.010787
-0.005326
-0.045609
-0.005326
-0.005326
0.018844
-0.029496
-0.021439
0.018844
0.002731
-0.005326
-0.021439
0.010787
0.018844
-0.021439
-0.045609
-0.029496
-0.021439
-0.013383
0.018844
0.018844
-0.021439
-0.029496
-0.021439
-0.037553
-0.013383
-0.029496
-0.029496
-0.037553
-0.013383
-0.029496
-0.053666
-0.021439
-0.029496
-0.021439
-0.013383
0.002731
-0.013383
-0.005326
0.131637
0.316940
0.373336
0.373336
0.373336
0.365279
0.405563
0.365279
0.308883
0.284713
0.196090
0.163863
0.123580
0.139693
0.115524
0.067184
0.059127
0.018844
0.018844
0.002731
-0.013383
-0.029496
-0.053666
-0.045609
-0.037553
-0.037553
-0.037553
-0.029496
-0.037553
-0.037553
-0.013383
0.002731
0.002731
0.002731
-0.021439
-0.021439
-0.021439
0.010787
0.010787
-0.005326
0.010787
0.002731
0.026900
0.010787
-0.005326
0.018844
-0.013383
0.034957
0.034957
0.010787
0.010787
-0.029496
-0.021439
0.002731
-0.005326
0.010787
0.002731
0.010787
0.010787
0.010787
-0.013383
0.026900
0.026900
-0.021439
-0.190629
-0.319535
-0.367875
-0.424271
-0.416215
-0.375932
-0.400101
-0.408158
-0.383988
-0.327592
-0.247025
-0.206742
-0.182572
0.002731
0.083297
0.163863
0.123580
0.163863
0.123580
0.163863
0.155807
0.139693
0.123580
0.083297
0.043014
0.010787
0.002731
0.010787
-0.021439
0.002731
0.002731
0.002731
0.018844
0.026900
0.010787
-0.005326
-0.005326
-0.021439
-0.013383
-0.005326
-0.013383
-0.061723
-0.053666
-0.021439
-0.053666
-0.005326
-0.029496
-0.013383
-0.005326
-0.045609
-0.045609
-0.053666
-0.013383
-0.045609
0.002731
-0.013383
-0.037553
-0.013383
-0.029496
-0.005326
-0.045609
-0.021439
-0.029496
-0.005326
0.163863
0.349166
0.397506
0.405563
0.373336
0.373336
0.381393
0.373336
0.349166
0.284713
0.212203
0.147750
0.139693
0.115524
0.099410
0.059127
0.059127
0.067184
0.002731
-0.045609
0.002731
-0.005326
-0.029496
-0.037553
-0.037553
0.002731
-0.021439
-0.037553
-0.021439
-0.013383
-0.021439
-0.013383
-0.021439
-0.013383
0.002731
-0.037553
-0.005326
-0.021439
0.002731
0.010787
-0.005326
-0.005326
0.026900
-0.005326
0.002731
0.010787
0.018844
0.026900
0.026900
-0.005326
0.002731
-0.029496
0.018844
0.010787
0.010787
0.018844
-0.005326
0.010787
0.018844
0.010787
0.026900
-0.005326
0.026900
-0.021439
-0.174516
-0.335648
-0.408158
-0.416215
-0.424271
-0.375932
-0.416215
-0.400101
-0.359818
-0.287308
-0.238969
-0.174516
-0.150346
-0.118119
-0.077836
-0.085892
-0.045609
-0.061723
-0.005326
-0.013383
0.002731
-0.005326
-0.013383
-0.021439
0.018844
-0.029496
-0.045609
0.002731
-0.005326
-0.005326
-0.021439
-0.005326
0.002731
-0.021439
-0.021439
-0.021439
0.075240
0.196090
