2.156251
2.349610
1.213624
0.657716
0.375733
0.166261
0.061524
0.029298
0.005128
-0.019042
0.005128
-0.019042
0.013185
-0.010985
-0.027099
-0.010985
-0.002929
0.013185
-0.027099
-0.019042
0.013185
-0.010985
-0.010985
-0.051269
-0.204345
-0.462157
-0.542724
-0.446044
-0.462157
-0.470214
-0.526610
-0.470214
-0.462157
-0.446044
-0.526610
-0.462157
-0.478271
-0.510497
-0.446044
-0.478271
-0.446044
-0.454101
-0.405761
-0.333251
-0.317138
-0.236571
-0.212401
-0.220458
-0.212401
-0.196288
-0.156005
-0.147948
-0.164062
-0.131835
-0.115722
-0.091552
-0.091552
-0.067382
-0.091552
-0.131835
-0.123778
-0.131835
-0.188232
-0.188232
-0.212401
-0.228515
-0.204345
-0.220458
-0.268798
-0.244628
-0.236571
-0.244628
-0.284911
-0.212401
-0.244628
-0.276855
-0.220458
-0.260741
-0.188232
-0.196288
-0.204345
-0.196288
-0.180175
-0.188232
-0.139892
-0.123778
-0.115722
-0.115722
-0.083495
-0.059325
-0.067382
-0.027099
0.238770
0.464356
0.609376
0.609376
0.601319
0.585206
0.536866
0.520753
0.464356
0.480470
0.464356
0.456300
0.456300
0.416017
0.399903
0.295167
0.279054
0.206544
0.222657
0.150147
0.150147
0.134034
0.134034
0.101808
0.061524
0.069581
-0.043212
-0.002929
0.013185
-0.010985
-0.019042
-0.002929
-0.010985
-0.010985
-0.002929
-0.043212
-0.010985
-0.002929
0.013185
-0.027099
-0.027099
0.021241
-0.010985
0.005128
-0.043212
-0.035155
-0.010985
0.013185
0.029298
0.037354
0.021241
-0.035155
0.013185
-0.010985
0.021241
0.005128
-0.043212
0.013185
-0.019042
0.021241
0.021241
-0.010985
-0.002929
-0.035155
-0.019042
-0.043212
-0.276855
-0.437987
-0.486327
-0.494384
-0.534667
-0.494384
-0.446044
-0.446044
-0.437987
-0.421874
-0.413817
-0.365478
-0.325194
-0.276855
-0.220458
-0.228515
-0.172118
-0.139892
-0.115722
-0.131835
-0.059325
-0.035155
-0.035155
-0.067382
0.013185
0.117921
0.214601
0.214601
0.230714
0.198487
0.182374
0.150147
0.117921
0.077638
0.021241
0.013185
-0.035155
-0.002929
-0.059325
-0.075439
-0.035155
-0.035155
-0.067382
-0.083495
-0.083495
-0.075439
-0.083495
-0.107665
-0.083495
-0.099608
-0.051269
-0.075439
-0.035155
-0.059325
-0.091552
-0.067382
-0.067382
-0.067382
-0.051269
-0.051269
-0.059325
-0.051269
-0.027099
-0.059325
-0.043212
-0.043212
0.117921
0.279054
0.351563
0.416017
0.424073
0.391847
0.375733
0.375733
0.375733
0.319337
0.303224
0.230714
0.174317
0.125977
0.125977
0.101808
0.077638
-0.002929
0.021241
0.045411
-0.002929
-0.027099
-0.027099
0.005128
-0.002929
-0.010985
0.005128
-0.019042
-0.051269
-0.002929
-0.027099
-0.035155
-0.043212
0.005128
0.005128
0.029298
0.021241
-0.002929
-0.051269
-0.027099
-0.010985
-0.027099
-0.010985
-0.002929
0.013185
-0.002929
-0.019042
-0.010985
0.005128
0.045411
-0.002929
0.021241
0.021241
0.029298
0.013185
0.005128
-0.002929
0.005128
0.005128
0.029298
-0.002929
0.021241
0.021241
0.021241
-0.083495
-0.204345
-0.365478
-0.389648
-0.397704
-0.405761
-0.389648
-0.405761
-0.373534
-0.357421
-0.309081
-0.228515
-0.196288
-0.164062
-0.123778
-0.115722
-0.115722
-0.083495
-0.043212
-0.035155
-0.027099
-0.019042
0.005128
0.021241
0.005128
0.005128
-0.010985
-0.027099
0.013185
0.013185
0.021241
-0.010985
-0.019042
-0.010985
-0.019042
-0.059325
-0.051269
-0.027099
-0.051269
-0.083495
-0.035155
-0.067382
-0.019042
-0.059325
-0.043212
-0.010985
0.077638
0.134034
0.166261
0.150147
0.174317
0.117921
0.101808
0.053468
-0.019042
-0.002929
-0.035155
-0.019042
-0.027099
-0.035155
-0.043212
-0.043212
-0.027099
-0.051269
0.013185
0.198487
0.311280
0.343507
0.343507
0.351563
0.367677
0.367677
0.367677
0.311280
0.279054
0.206544
0.206544
0.158204
0.117921
0.101808
0.053468
0.061524
0.037354
-0.027099
-0.027099
-0.010985
-0.043212
0.005128
-0.010985
-0.059325
-0.019042
-0.010985
-0.019042
-0.010985
-0.010985
-0.027099
-0.019042
-0.019042
-0.019042
-0.010985
-0.027099
-0.043212
-0.002929
-0.035155
-0.035155
-0.035155
-0.010985
-0.027099
-0.043212
-0.010985
-0.019042
-0.002929
-0.002929
0.005128
-0.010985
-0.002929
0.021241
-0.002929
-0.010985
-0.010985
-0.010985
0.005128
-0.010985
-0.010985
0.013185
0.037354
-0.035155
-0.002929
-0.035155
-0.147948
-0.341308
-0.413817
-0.421874
-0.381591
-0.381591
-0.381591
-0.373534
-0.341308
-0.284911
-0.220458
-0.196288
-0.156005
-0.107665
-0.099608
-0.059325
-0.035155
-0.027099
-0.019042
-0.002929
0.013185
0.013185
0.013185
0.045411
0.029298
0.029298
-0.002929
0.005128
0.005128
0.013185
-0.010985
-0.035155
-0.002929
-0.027099
-0.027099
-0.027099
-0.059325
-0.035155
-0.051269
-0.027099
-0.027099
-0.027099
-0.043212
-0.051269
-0.043212
-0.067382
-0.051269
-0.059325
-0.043212
-0.035155
-0.019042
-0.010985
-0.067382
-0.043212
-0.059325
-0.027099
0.005128
-0.043212
-0.002929
-0.051269
-0.027099
-0.067382
-0.019042
-0.051269
0.125977
0.262940
0.327393
0.351563
0.367677
0.351563
0.351563
0.367677
0.311280
0.254884
0.254884
0.319337
0.367677
0.319337
0.279054
0.295167
0.206544
0.158204
0.109864
0.085694
0.077638
0.013185
-0.019042
0.005128
-0.010985
0.013185
-0.010985
-0.051269
-0.035155
-0.059325
-0.027099
-0.035155
0.013185
-0.002929
-0.002929
-0.035155
-0.010985
-0.027099
0.005128
0.005128
-0.002929
0.013185
0.021241
-0.010985
-0.002929
-0.027099
-0.002929
0.013185
0.029298
0.013185
0.037354
-0.027099
0.013185
0.013185
-0.002929
0.013185
0.005128
0.013185
0.013185
0.029298
0.021241
0.013185
-0.002929
-0.019042
-0.123778
-0.301024
-0.381591
-0.357421
-0.373534
-0.373534
-0.389648
-0.357421
-0.309081
-0.292968
-0.204345
-0.180175
-0.099608
-0.099608
-0.083495
-0.059325
-0.083495
-0.035155
-0.002929
-0.027099
-0.010985
0.029298
-0.002929
0.021241
0.005128
0.013185
-0.002929
0.021241
0.005128
0.005128
-0.019042
-0.010985
-0.010985
0.021241
0.005128
-0.027099
-0.019042
-0.002929
-0.010985
-0.002929
-0.027099
-0.035155
-0.027099
-0.010985
-0.027099
-0.035155
0.005128
-0.043212
-0.010985
-0.059325
-0.043212
-0.035155
-0.035155
-0.019042
-0.043212
-0.043212
-0.019042
-0.027099
-0.035155
-0.035155
-0.019042
-0.051269
-0.002929
0.005128
0.109864
0.246827
0.367677
0.343507
0.343507
0.375733
0.359620
0.335450
0.335450
0.270997
0.206544
0.158204
0.150147
0.093751
0.069581
0.061524
0.029298
0.045411
0.005128
0.013185
-0.019042
-0.043212
-0.010985
0.021241
-0.010985
-0.027099
-0.035155
-0.019042
-0.010985
-0.019042
-0.027099
-0.010985
-0.019042
0.005128
-0.035155
0.037354
0.101808
0.198487
0.190431
0.158204
0.125977
0.085694
0.021241
0.053468
-0.002929
0.005128
-0.002929
0.021241
0.013185
-0.010985
0.021241
-0.002929
0.045411
0.021241
0.013185
-0.010985
0.021241
0.021241
-0.019042
0.005128
0.021241
0.005128
-0.002929
-0.002929
-0.147948
-0.301024
-0.357421
-0.349364
-0.365478
-0.389648
-0.397704
-0.333251
-0.325194
-0.276855
-0.180175
-0.164062
-0.131835
-0.139892
-0.083495
-0.067382
-0.075439
-0.027099
-0.010985
0.013185
0.029298
0.005128
0.021241
0.029298
0.005128
-0.002929
0.005128
0.013185
0.021241
-0.002929
0.005128
-0.010985
-0.010985
-0.010985
-0.002929
0.029298
-0.002929
0.005128
0.045411
-0.027099
-0.027099
-0.002929
-0.027099
-0.010985
-0.019042
-0.043212
-0.035155
-0.027099
-0.027099
-0.043212
-0.027099
-0.051269
-0.027099
-0.019042
-0.027099
-0.019042
-0.043212
-0.043212
-0.019042
0.005128
-0.035155
-0.019042
-0.043212
-0.019042
0.117921
0.270997
0.303224
0.367677
0.367677
0.383790
0.343507
0.311280
0.295167
0.238770
0.222657
0.182374
0.174317
0.069581
0.077638
0.045411
0.069581
0.005128
0.021241
-0.019042
-0.010985
-0.002929
-0.027099
-0.010985
-0.002929
-0.002929
-0.002929
-0.019042
-0.027099
-0.010985
-0.019042
-0.019042
-0.027099
0.005128
0.037354
0.005128
0.021241
0.005128
-0.002929
-0.051269
-0.035155
-0.002929
-0.002929
0.013185
-0.019042
-0.002929
0.013185
0.029298
-0.010985
0.005128
-0.002929
-0.002929
-0.010985
-0.010985
-0.002929
0.013185
0.005128
-0.035155
-0.027099
0.021241
-0.002929
-0.019042
0.021241
-0.010985
-0.067382
-0.083495
-0.091552
-0.139892
-0.139892
-0.196288
-0.236571
-0.204345
-0.180175
-0.131835
-0.131835
-0.107665
-0.123778
-0.083495
-0.083495
-0.083495
-0.059325
-0.043212
-0.027099
0.013185
-0.019042
0.005128
-0.027099
-0.002929
-0.010985
-0.002929
0.061524
0.005128
0.013185
0.005128
-0.002929
0.021241
-0.002929
0.021241
-0.010985
0.013185
0.053468
-0.010985
0.013185
0.013185
0.021241
-0.010985
-0.019042
-0.019042
0.005128
-0.019042
-0.059325
-0.067382
-0.043212
-0.043212
-0.027099
-0.027099
-0.019042
-0.051269
-0.027099
-0.019042
-0.019042
-0.019042
-0.027099
-0.043212
-0.035155
-0.043212
-0.051269
-0.010985
0.134034
0.238770
0.351563
0.351563
0.327393
0.383790
0.367677
0.367677
0.319337
0.254884
0.174317
0.158204
0.125977
0.085694
0.125977
0.053468
0.069581
0.061524
0.013185
0.013185
-0.019042
-0.035155
0.005128
-0.019042
-0.019042
0.005128
-0.010985
-0.010985
0.005128
-0.043212
-0.010985
-0.010985
-0.019042
-0.010985
-0.043212
-0.002929
-0.043212
-0.019042
-0.002929
-0.010985
-0.010985
-0.019042
-0.010985
-0.010985
-0.002929
0.029298
-0.002929
-0.019042
0.021241
0.021241
-0.043212
-0.002929
0.005128
0.021241
0.037354
0.021241
0.005128
0.021241
0.029298
-0.002929
0.005128
0.021241
-0.035155
-0.027099
-0.139892
-0.260741
-0.349364
-0.381591
-0.357421
-0.357421
-0.381591
-0.365478
-0.341308
-0.236571
-0.212401
-0.204345
-0.131835
-0.139892
-0.091552
-0.083495
-0.083495
-0.051269
-0.027099
-0.027099
-0.002929
-0.010985
-0.019042
0.101808
0.222657
0.230714
0.222657
0.190431
0.198487
0.190431
0.142091
0.093751
0.045411
0.029298
0.005128
-0.035155
0.013185
0.005128
-0.010985
-0.019042
-0.002929
-0.019042
-0.043212
-0.051269
-0.010985
-0.027099
-0.051269
-0.027099
-0.019042
-0.051269
-0.051269
-0.002929
-0.010985
-0.059325
-0.010985
-0.043212
-0.027099
-0.027099
-0.035155
-0.035155
-0.043212
-0.035155
-0.027099
0.013185
0.134034
0.270997
0.335450
0.351563
0.343507
0.351563
0.335450
0.343507
0.327393
0.287110
0.190431
0.174317
0.085694
0.101808
0.053468
0.053468
0.061524
0.005128
0.005128
-0.010985
-0.019042
-0.010985
-0.010985
-0.010985
-0.043212
-0.027099
-0.027099
-0.027099
0.021241
-0.010985
-0.010985
-0.027099
-0.010985
-0.059325
-0.043212
-0.027099
-0.010985
0.005128
0.013185
0.005128
-0.019042
0.005128
0.045411
-0.027099
-0.019042
0.005128
0.021241
-0.002929
-0.002929
0.037354
-0.010985
-0.027099
-0.002929
0.005128
-0.019042
0.013185
0.013185
-0.010985
0.021241
0.005128
-0.010985
0.037354
0.069581
-0.019042
-0.180175
-0.284911
-0.349364
-0.381591
-0.389648
-0.357421
-0.421874
-0.365478
-0.301024
-0.276855
-0.212401
-0.164062
-0.123778
-0.107665
-0.043212
-0.075439
-0.067382
-0.035155
0.021241
-0.002929
-0.010985
0.005128
-0.010985
0.029298
-0.002929
0.021241
0.021241
0.005128
0.013185
0.013185
0.045411
0.005128
0.013185
-0.027099
-0.019042
-0.019042
-0.043212
-0.027099
-0.027099
-0.035155
-0.043212
-0.019042
-0.067382
-0.051269
-0.059325
-0.010985
-0.051269
-0.035155
-0.002929
-0.067382
-0.051269
-0.083495
-0.019042
0.117921
0.190431
0.230714
0.206544
0.230714
0.174317
0.125977
0.134034
0.045411
0.029298
0.061524
0.222657
0.351563
0.375733
0.367677
0.383790
0.359620
0.351563
0.335450
0.319337
0.254884
0.206544
0.142091
0.101808
0.053468
0.037354
0.053468
0.069581
0.045411
-0.027099
-0.043212
-0.027099
-0.019042
-0.043212
-0.019042
-0.067382
-0.019042
-0.043212
-0.010985
-0.019042
-0.027099
-0.035155
-0.035155
-0.002929
-0.035155
-0.027099
-0.010985
-0.019042
-0.027099
0.045411
-0.002929
-0.043212
-0.002929
-0.027099
-0.002929
0.021241
-0.010985
-0.019042
0.013185
-0.010985
-0.010985
-0.019042
0.021241
-0.002929
-0.002929
0.013185
-0.010985
0.005128
0.005128
0.029298
0.005128
0.013185
0.021241
-0.002929
-0.043212
-0.180175
-0.317138
-0.365478
-0.381591
-0.381591
-0.373534
-0.381591
-0.373534
-0.317138
-0.252685
-0.212401
-0.147948
-0.164062
-0.091552
-0.099608
-0.059325
-0.043212
-0.075439
-0.019042
-0.010985
0.029298
-0.010985
0.013185
-0.002929
-0.002929
0.013185
0.029298
0.005128
0.005128
0.013185
-0.019042
-0.010985
-0.002929
-0.010985
0.013185
-0.027099
0.013185
-0.027099
-0.010985
0.021241
-0.019042
-0.027099
-0.027099
-0.010985
-0.027099
-0.027099
-0.035155
-0.002929
-0.043212
-0.043212
-0.043212
-0.043212
-0.002929
-0.019042
-0.010985
-0.035155
-0.035155
-0.010985
-0.010985
-0.010985
-0.019042
-0.019042
-0.027099
-0.002929
0.150147
0.311280
0.335450
0.335450
0.351563
0.375733
0.343507
0.343507
0.287110
0.222657
0.190431
0.093751
0.077638
0.069581
0.174317
0.246827
0.262940
0.230714
0.222657
0.182374
0.166261
0.142091
0.077638
0.053468
0.061524
0.021241
-0.027099
-0.019042
-0.002929
-0.002929
0.029298
-0.043212
-0.019042
-0.019042
-0.010985
-0.002929
-0.019042
-0.035155
-0.010985
-0.027099
0.005128
-0.002929
-0.035155
-0.002929
-0.019042
0.013185
0.037354
-0.019042
-0.002929
-0.010985
0.021241
0.021241
-0.010985
0.013185
-0.002929
-0.019042
0.005128
-0.010985
0.029298
0.005128
0.005128
-0.010985
-0.010985
-0.035155
-0.180175
-0.309081
-0.357421
-0.381591
-0.325194
-0.405761
-0.381591
-0.365478
-0.292968
-0.260741
-0.220458
-0.172118
-0.139892
-0.107665
-0.099608
-0.075439
-0.075439
-0.027099
-0.010985
-0.019042
0.005128
-0.010985
-0.002929
0.013185
-0.010985
-0.002929
0.005128
-0.002929
-0.002929
0.021241
0.005128
0.005128
-0.002929
-0.027099
-0.002929
0.013185
0.005128
-0.019042
-0.002929
-0.010985
0.005128
-0.002929
-0.002929
-0.027099
-0.027099
-0.043212
-0.019042
-0.059325
-0.019042
-0.035155
-0.043212
-0.027099
-0.019042
-0.027099
-0.019042
-0.043212
-0.010985
-0.010985
-0.027099
-0.019042
-0.043212
-0.002929
-0.035155
0.029298
0.174317
0.287110
0.343507
0.359620
0.327393
0.359620
0.375733
0.319337
0.343507
0.206544
0.182374
0.125977
0.117921
0.101808
0.069581
0.053468
0.029298
0.029298
-0.010985
-0.010985
-0.019042
-0.019042
-0.019042
-0.043212
-0.035155
-0.043212
-0.043212
-0.027099
-0.019042
-0.035155
-0.051269
-0.035155
-0.035155
-0.027099
-0.035155
-0.051269
-0.059325
-0.035155
0.013185
-0.027099
-0.035155
-0.002929
0.061524
0.214601
0.246827
0.270997
0.238770
0.222657
0.214601
0.150147
0.134034
0.093751
0.061524
0.053468
0.021241
0.037354
0.005128
0.013185
0.013185
0.013185
0.005128
0.021241
0.013185
-0.051269
-0.204345
-0.317138
-0.333251
-0.357421
-0.357421
-0.397704
-0.357421
-0.317138
-0.309081
-0.236571
-0.164062
-0.188232
-0.131835
-0.123778
-0.059325
-0.075439
-0.035155
-0.059325
-0.010985
0.021241
-0.002929
0.005128
-0.010985
0.013185
0.013185
0.021241
0.037354
0.013185
0.029298
-0.010985
-0.010985
0.005128
-0.035155
0.021241
-0.002929
-0.010985
-0.010985
-0.043212
-0.002929
-0.010985
0.029298
-0.019042
-0.043212
0.013185
-0.027099
-0.002929
-0.035155
-0.043212
-0.019042
-0.051269
-0.051269
-0.027099
-0.059325
-0.027099
-0.051269
-0.035155
-0.043212
-0.019042
-0.067382
-0.027099
-0.043212
-0.043212
-0.043212
0.037354
0.214601
0.270997
0.343507
0.335450
0.343507
0.359620
0.343507
0.319337
0.254884
0.230714
0.182374
0.125977
0.134034
0.093751
0.077638
0.045411
0.037354
0.029298
-0.002929
-0.002929
-0.019042
-0.010985
0.005128
-0.035155
-0.051269
-0.010985
-0.043212
-0.019042
-0.035155
-0.035155
-0.035155
-0.051269
0.005128
-0.002929
-0.019042
-0.043212
-0.027099
-0.002929
0.021241
-0.002929
-0.002929
-0.019042
0.013185
-0.019042
0.013185
0.021241
-0.027099
0.005128
0.005128
-0.027099
-0.002929
0.013185
-0.010985
0.013185
-0.002929
-0.002929
0.021241
-0.010985
0.021241
0.005128
-0.002929
-0.002929
-0.010985
-0.059325
-0.244628
-0.276855
-0.156005
-0.139892
-0.147948
-0.188232
-0.188232
-0.156005
-0.164062
-0.172118
-0.083495
-0.083495
-0.091552
-0.099608
-0.059325
-0.059325
-0.035155
-0.010985
-0.010985
0.021241
0.005128
-0.010985
-0.002929
0.029298
-0.010985
0.005128
-0.010985
-0.027099
-0.019042
-0.002929
-0.010985
-0.010985
-0.010985
-0.035155
-0.027099
-0.027099
-0.035155
-0.010985
0.005128
0.013185
-0.027099
-0.019042
-0.019042
-0.043212
-0.019042
-0.027099
-0.027099
-0.035155
-0.019042
-0.002929
-0.002929
-0.043212
-0.051269
-0.043212
-0.002929
-0.019042
-0.002929
-0.027099
-0.035155
-0.051269
-0.035155
-0.035155
-0.002929
0.045411
0.214601
0.279054
0.375733
0.343507
0.335450
0.351563
0.327393
0.319337
0.295167
0.222657
0.198487
0.101808
0.166261
0.101808
0.045411
0.053468
0.037354
-0.010985
-0.019042
-0.019042
-0.035155
0.037354
-0.035155
-0.010985
0.013185
0.013185
-0.010985
-0.019042
-0.043212
-0.027099
-0.002929
-0.027099
0.005128
0.005128
-0.002929
-0.027099
-0.019042
0.005128
0.005128
0.029298
-0.002929
0.013185
-0.010985
-0.027099
-0.010985
0.005128
0.013185
0.013185
-0.010985
0.013185
0.005128
-0.002929
-0.010985
0.021241
0.021241
-0.019042
0.013185
0.029298
0.005128
0.013185
0.013185
0.053468
0.013185
-0.059325
-0.220458
-0.333251
-0.357421
-0.373534
-0.381591
-0.389648
-0.373534
-0.381591
-0.325194
-0.228515
-0.156005
-0.156005
-0.115722
-0.107665
-0.067382
-0.067382
-0.067382
-0.043212
-0.051269
-0.035155
0.029298
0.013185
-0.002929
-0.027099
-0.027099
-0.019042
-0.051269
-0.019042
0.005128
-0.043212
-0.002929
0.125977
0.206544
0.262940
0.230714
0.230714
0.182374
0.174317
0.125977
0.125977
0.125977
0.053468
0.053468
0.005128
0.013185
0.021241
-0.027099
-0.027099
-0.051269
-0.035155
-0.019042
-0.035155
-0.035155
-0.035155
-0.051269
-0.002929
-0.027099
-0.019042
-0.019042
-0.035155
-0.051269
-0.043212
-0.019042
0.029298
0.174317
0.311280
0.367677
0.359620
0.351563
0.359620
0.351563
0.327393
0.287110
0.214601
0.182374
0.134034
0.117921
0.093751
0.101808
0.053468
0.037354
0.037354
0.005128
-0.010985
-0.027099
-0.027099
-0.027099
-0.043212
-0.027099
-0.027099
-0.035155
-0.043212
-0.010985
-0.051269
-0.010985
-0.019042
0.013185
-0.027099
-0.019042
0.013185
-0.027099
-0.010985
-0.010985
0.013185
0.005128
0.013185
0.005128
0.029298
-0.027099
0.013185
0.045411
-0.002929
0.029298
0.013185
-0.002929
0.029298
-0.002929
-0.002929
0.045411
-0.002929
0.021241
0.013185
-0.010985
-0.002929
0.005128
0.021241
-0.019042
-0.059325
-0.204345
-0.325194
-0.325194
-0.381591
-0.397704
-0.381591
-0.357421
-0.333251
-0.317138
-0.244628
-0.180175
-0.172118
-0.123778
-0.091552
-0.083495
-0.059325
-0.043212
-0.035155
0.013185
-0.002929
0.045411
-0.010985
-0.019042
0.037354
-0.010985
0.045411
-0.002929
0.021241
-0.002929
-0.010985
-0.019042
0.005128
-0.019042
-0.010985
-0.027099
0.005128
0.013185
0.021241
-0.019042
-0.002929
-0.035155
-0.002929
-0.019042
-0.019042
-0.043212
-0.035155
-0.002929
-0.019042
-0.019042
-0.002929
0.005128
-0.075439
-0.043212
-0.035155
-0.067382
-0.019042
0.077638
0.158204
0.230714
0.222657
0.198487
0.182374
0.117921
0.214601
0.351563
0.432130
0.416017
0.383790
0.375733
0.359620
0.343507
0.335450
0.311280
0.206544
0.198487
0.134034
0.109864
0.109864
0.061524
0.061524
0.013185
0.037354
0.013185
0.005128
-0.002929
-0.035155
-0.027099
-0.002929
-0.035155
-0.002929
-0.027099
-0.010985
-0.027099
-0.002929
-0.027099
-0.010985
0.005128
-0.010985
-0.010985
-0.002929
-0.051269
-0.002929
-0.010985
0.013185
-0.010985
-0.010985
-0.002929
0.013185
0.013185
0.005128
0.005128
-0.035155
-0.010985
0.005128
0.013185
0.053468
0.021241
0.029298
-0.019042
0.013185
0.013185
-0.010985
0.037354
0.013185
0.005128
0.029298
0.005128
-0.067382
-0.252685
-0.317138
-0.333251
-0.397704
-0.397704
-0.397704
-0.349364
-0.325194
-0.268798
-0.164062
-0.196288
-0.131835
-0.107665
-0.099608
-0.043212
-0.067382
-0.043212
0.013185
-0.002929
0.005128
-0.002929
-0.002929
0.013185
-0.010985
0.045411
0.013185
0.037354
0.021241
0.013185
0.013185
-0.010985
-0.010985
-0.019042
-0.051269
-0.010985
0.013185
0.013185
-0.035155
-0.019042
-0.027099
-0.010985
-0.010985
-0.035155
-0.002929
-0.002929
-0.043212
-0.035155
-0.019042
-0.002929
0.005128
-0.002929
0.029298
-0.019042
0.021241
-0.019042
-0.035155
-0.027099
-0.019042
0.013185
-0.027099
0.005128
-0.027099
-0.010985
0.061524
0.230714
0.287110
0.319337
0.359620
0.375733
0.351563
0.351563
0.295167
0.254884
0.190431
0.134034
0.125977
0.053468
0.053468
0.053468
0.037354
0.021241
-0.027099
-0.010985
-0.019042
0.037354
0.158204
0.214601
0.222657
0.206544
0.198487
0.150147
0.117921
0.101808
0.037354
0.045411
0.005128
-0.019042
-0.019042
0.005128
-0.027099
-0.035155
-0.002929
0.005128
-0.019042
-0.027099
-0.010985
-0.010985
-0.019042
0.005128
-0.002929
0.013185
-0.019042
0.013185
-0.010985
0.013185
0.045411
0.005128
-0.002929
0.005128
0.037354
0.013185
0.037354
0.021241
-0.002929
-0.019042
0.005128
-0.002929
-0.099608
-0.212401
-0.349364
-0.373534
-0.349364
-0.397704
-0.389648
-0.357421
-0.349364
-0.268798
-0.252685
-0.172118
-0.172118
-0.091552
-0.115722
-0.067382
-0.067382
-0.010985
-0.027099
-0.002929
0.029298
0.013185
0.005128
-0.027099
0.021241
0.005128
-0.010985
0.013185
-0.019042
0.005128
-0.019042
-0.002929
0.045411
-0.010985
-0.019042
-0.019042
-0.019042
0.037354
-0.019042
0.005128
-0.019042
-0.010985
-0.002929
-0.035155
-0.027099
-0.027099
-0.027099
-0.019042
-0.051269
-0.019042
0.021241
-0.027099
-0.035155
-0.027099
-0.051269
-0.010985
-0.035155
-0.002929
0.005128
-0.002929
-0.051269
-0.019042
-0.067382
-0.027099
0.029298
0.254884
0.319337
0.359620
0.383790
0.351563
0.375733
0.359620
0.327393
0.222657
0.198487
0.158204
0.101808
0.117921
0.077638
0.093751
0.037354
0.037354
0.005128
0.013185
-0.019042
-0.027099
-0.027099
-0.010985
-0.043212
0.005128
-0.027099
-0.019042
0.013185
-0.019042
-0.035155
-0.043212
-0.019042
-0.027099
-0.043212
0.021241
-0.002929
-0.019042
-0.043212
-0.027099
-0.010985
0.005128
-0.019042
-0.002929
0.053468
0.166261
0.262940
0.230714
0.230714
0.230714
0.182374
0.174317
0.125977
0.101808
0.053468
0.045411
0.053468
0.021241
0.037354
0.005128
0.029298
0.013185
-0.002929
0.021241
-0.091552
-0.252685
-0.333251
-0.349364
-0.349364
-0.389648
-0.421874
-0.405761
-0.317138
-0.276855
-0.212401
-0.156005
-0.156005
-0.131835
-0.099608
-0.099608
-0.035155
-0.027099
-0.035155
-0.010985
-0.019042
-0.010985
-0.027099
-0.010985
0.013185
-0.010985
0.005128
-0.019042
0.037354
-0.002929
0.013185
0.013185
-0.010985
0.013185
0.021241
0.021241
-0.035155
0.005128
0.013185
-0.035155
-0.010985
-0.051269
-0.002929
-0.051269
-0.019042
-0.010985
-0.027099
-0.035155
-0.010985
-0.027099
-0.019042
-0.002929
-0.010985
-0.019042
-0.059325
-0.019042
-0.035155
-0.051269
-0.035155
0.005128
-0.019042
-0.035155
0.005128
-0.027099
0.053468
0.262940
0.303224
0.359620
0.351563
0.343507
0.351563
0.351563
0.295167
0.279054
0.230714
0.166261
0.134034
0.085694
0.061524
0.061524
0.045411
0.061524
0.013185
-0.019042
0.021241
-0.027099
-0.019042
-0.027099
-0.035155
-0.027099
-0.043212
-0.051269
-0.051269
-0.002929
-0.002929
-0.019042
-0.019042
-0.035155
-0.051269
-0.002929
0.013185
-0.019042
-0.019042
-0.002929
0.005128
-0.002929
0.005128
0.021241
0.005128
0.013185
-0.027099
0.037354
-0.010985
-0.019042
-0.010985
-0.002929
0.013185
0.005128
-0.002929
-0.019042
-0.002929
0.005128
-0.002929
0.005128
0.005128
-0.010985
0.013185
0.005128
-0.115722
-0.260741
-0.357421
-0.381591
-0.437987
-0.397704
-0.373534
-0.405761
-0.381591
-0.284911
-0.131835
0.021241
0.093751
0.125977
0.134034
0.109864
0.125977
0.101808
0.134034
0.109864
0.093751
0.053468
0.053468
0.021241
0.037354
0.005128
0.013185
0.021241
0.021241
0.037354
-0.010985
0.005128
-0.010985
0.005128
0.037354
0.013185
0.013185
-0.002929
0.005128
0.005128
-0.002929
0.013185
0.013185
-0.010985
-0.002929
0.005128
-0.002929
-0.019042
-0.035155
-0.027099
-0.035155
-0.027099
-0.010985
0.005128
-0.002929
-0.059325
-0.027099
-0.010985
0.045411
-0.002929
-0.010985
0.005128
-0.010985
-0.002929
0.093751
0.254884
0.319337
0.319337
0.367677
0.383790
0.351563
0.335450
0.303224
0.270997
0.222657
0.166261
0.134034
0.101808
0.077638
0.053468
0.053468
0.021241
0.029298
-0.019042
-0.010985
-0.010985
-0.043212
-0.019042
-0.019042
0.005128
-0.010985
-0.043212
0.005128
-0.027099
-0.027099
-0.010985
-0.002929
-0.019042
-0.010985
-0.019042
-0.019042
0.013185
-0.002929
-0.019042
-0.043212
0.005128
-0.027099
0.029298
0.013185
-0.002929
0.029298
0.005128
-0.002929
0.013185
-0.019042
-0.002929
0.005128
0.021241
-0.010985
-0.002929
0.021241
-0.002929
-0.010985
0.013185
0.029298
0.013185
0.005128
-0.002929
-0.147948
-0.260741
-0.341308
-0.365478
-0.381591
-0.405761
-0.405761
-0.349364
-0.317138
-0.276855
-0.228515
-0.156005
-0.131835
-0.123778
-0.067382
-0.083495
-0.051269
-0.043212
-0.010985
-0.002929
0.013185
-0.010985
0.013185
-0.027099
0.013185
-0.002929
0.029298
-0.019042
-0.019042
-0.002929
-0.010985
-0.002929
-0.019042
0.021241
-0.035155
0.053468
0.198487
0.230714
0.198487
0.198487
0.206544
0.166261
0.134034
0.101808
0.061524
0.077638
0.013185
-0.043212
-0.010985
-0.002929
0.037354
-0.010985
0.013185
-0.027099
-0.019042
-0.002929
-0.043212
-0.035155
-0.035155
-0.035155
-0.051269
-0.059325
-0.002929
-0.010985
0.101808
0.262940
0.343507
0.343507
0.375733
0.391847
0.343507
0.367677
0.343507
0.238770
0.190431
0.158204
0.093751
0.101808
0.077638
0.069581
0.021241
0.037354
-0.002929
-0.010985
-0.019042
-0.010985
-0.051269
-0.035155
-0.010985
-0.002929
-0.019042
-0.002929
-0.019042
-0.019042
-0.019042
-0.027099
-0.035155
-0.010985
0.013185
0.005128
0.029298
-0.002929
-0.002929
0.029298
0.005128
-0.002929
-0.019042
-0.010985
0.013185
0.029298
-0.010985
-0.002929
0.021241
-0.019042
-0.002929
0.053468
-0.019042
0.013185
0.013185
0.005128
-0.002929
0.021241
0.013185
0.021241
0.029298
-0.010985
0.005128
-0.010985
-0.123778
-0.276855
-0.349364
-0.357421
-0.357421
-0.397704
-0.389648
-0.357421
-0.309081
-0.284911
-0.220458
-0.164062
-0.123778
-0.099608
-0.099608
-0.059325
-0.075439
-0.010985
0.013185
0.005128
0.029298
-0.002929
-0.002929
0.029298
-0.010985
0.005128
0.005128
0.005128
-0.002929
-0.002929
0.005128
-0.002929
-0.027099
0.005128
0.005128
-0.010985
-0.002929
-0.002929
-0.010985
0.005128
-0.019042
-0.010985
-0.043212
-0.002929
-0.027099
-0.035155
-0.010985
-0.027099
-0.035155
-0.035155
-0.010985
-0.043212
-0.043212
-0.035155
-0.019042
-0.043212
-0.043212
-0.051269
-0.051269
-0.035155
-0.051269
-0.035155
-0.035155
0.045411
0.319337
0.496583
0.593263
0.585206
0.536866
0.528810
0.528810
0.488526
0.448243
0.343507
0.254884
0.198487
0.166261
0.109864
0.085694
0.061524
0.069581
0.037354
-0.027099
0.005128
-0.059325
-0.010985
-0.010985
-0.051269
-0.051269
-0.019042
-0.002929
-0.019042
-0.043212
0.005128
-0.035155
0.029298
-0.002929
-0.010985
0.021241
0.013185
-0.010985
0.021241
-0.019042
-0.002929
-0.002929
-0.019042
-0.010985
-0.002929
0.021241
-0.019042
-0.002929
0.021241
0.029298
0.029298
-0.010985
0.005128
0.013185
-0.002929
0.013185
0.021241
0.029298
0.013185
-0.010985
0.013185
-0.002929
-0.019042
0.005128
-0.035155
-0.131835
-0.268798
-0.333251
-0.373534
-0.381591
-0.365478
-0.381591
-0.373534
-0.309081
-0.180175
-0.180175
-0.147948
-0.091552
-0.083495
-0.115722
-0.091552
-0.027099
-0.019042
0.005128
-0.043212
0.037354
0.029298
-0.002929
0.005128
-0.035155
-0.002929
0.013185
-0.010985
-0.035155
0.005128
0.013185
-0.010985
-0.019042
-0.027099
0.005128
0.029298
-0.010985
0.021241
-0.019042
-0.010985
-0.010985
0.005128
0.005128
-0.043212
0.005128
-0.019042
-0.035155
-0.002929
-0.019042
-0.019042
-0.043212
0.021241
-0.019042
-0.059325
-0.027099
0.005128
-0.043212
-0.027099
-0.010985
-0.010985
-0.035155
-0.035155
0.005128
-0.010985
0.125977
0.262940
0.343507
0.383790
0.343507
0.407960
0.351563
0.327393
0.311280
0.222657
0.174317
0.158204
0.077638
0.093751
0.061524
0.061524
0.093751
0.013185
-0.010985
-0.019042
-0.043212
-0.035155
0.005128
0.134034
0.214601
0.246827
0.190431
0.182374
0.166261
0.109864
0.134034
0.109864
0.053468
0.013185
-0.002929
0.013185
0.005128
0.005128
-0.002929
-0.027099
0.013185
-0.010985
-0.002929
0.029298
0.005128
0.013185
0.005128
-0.002929
-0.010985
0.013185
-0.027099
-0.010985
-0.010985
-0.010985
0.013185
-0.002929
0.021241
0.013185
0.005128
-0.002929
0.013185
-0.010985
0.021241
-0.059325
-0.164062
-0.317138
-0.349364
-0.365478
-0.349364
-0.373534
-0.365478
-0.341308
-0.325194
-0.260741
-0.196288
-0.147948
-0.147948
-0.067382
-0.099608
-0.075439
-0.051269
-0.027099
0.005128
-0.002929
0.005128
0.013185
-0.010985
0.021241
-0.010985
-0.002929
0.005128
-0.002929
-0.010985
-0.010985
-0.002929
0.005128
-0.010985
0.013185
-0.027099
-0.010985
-0.035155
-0.010985
-0.043212
0.005128
-0.051269
-0.010985
0.005128
-0.027099
-0.027099
-0.002929
-0.059325
-0.035155
-0.035155
-0.019042
-0.043212
-0.035155
-0.010985
-0.019042
-0.019042
0.005128
-0.010985
0.029298
-0.002929
-0.027099
-0.027099
-0.019042
-0.035155
0.005128
0.134034
0.287110
0.359620
0.375733
0.383790
0.343507
0.359620
0.327393
0.270997
0.254884
0.174317
0.142091
0.134034
0.125977
0.053468
0.069581
0.061524
0.021241
0.013185
-0.002929
-0.035155
-0.019042
-0.035155
-0.027099
-0.010985
0.005128
-0.051269
-0.035155
-0.027099
0.005128
-0.019042
-0.019042
