-2.963769
-3.084618
-1.618310
-0.860986
-0.796533
-0.579003
-0.361474
-0.192284
-0.087548
-0.047265
-0.023095
-0.023095
0.017188
-0.006982
0.001075
0.033301
0.033301
0.025245
-0.006982
0.025245
0.025245
0.049415
0.009132
0.009132
0.009132
0.017188
-0.006982
0.001075
0.017188
-0.006982
-0.015038
-0.039208
-0.006982
-0.055322
0.017188
0.001075
0.001075
-0.015038
-0.047265
-0.031152
-0.047265
-0.031152
-0.031152
-0.039208
-0.031152
0.001075
0.017188
-0.015038
-0.031152
-0.031152
-0.031152
-0.055322
0.033301
0.299171
0.548926
0.653663
0.556983
0.613380
0.589210
0.548926
0.548926
0.532813
0.500587
0.460303
0.411964
0.452247
0.355567
0.323341
0.299171
0.234717
0.210548
0.202491
0.129981
0.162208
0.097755
0.097755
0.057471
0.105811
0.025245
-0.031152
-0.031152
0.025245
0.186378
0.210548
0.210548
0.186378
0.146094
0.081641
0.049415
0.041358
0.025245
0.025245
0.009132
0.041358
-0.015038
0.041358
0.001075
-0.015038
0.009132
-0.015038
0.001075
0.017188
-0.006982
0.009132
0.009132
0.001075
0.001075
-0.006982
0.001075
0.025245
0.049415
0.009132
0.033301
0.017188
0.001075
-0.015038
-0.152001
-0.450097
-0.587060
-0.651513
-0.627343
-0.554833
-0.554833
-0.603173
-0.546777
-0.506493
-0.466210
-0.450097
-0.474267
-0.442040
-0.361474
-0.288964
-0.272851
-0.184228
-0.200341
-0.176171
-0.119775
-0.095605
-0.095605
-0.031152
-0.071435
-0.063378
-0.015038
0.025245
0.025245
0.001075
0.001075
0.001075
-0.015038
0.009132
-0.006982
0.017188
0.025245
0.001075
-0.023095
0.033301
-0.015038
-0.039208
-0.015038
-0.031152
-0.015038
0.001075
-0.023095
-0.031152
-0.023095
-0.023095
-0.006982
-0.023095
-0.023095
-0.023095
-0.055322
-0.031152
-0.006982
0.009132
0.033301
-0.015038
-0.006982
-0.047265
-0.015038
0.009132
-0.031152
-0.055322
0.154151
0.347510
0.436134
0.492530
0.508643
0.484473
0.460303
0.444190
0.403907
0.403907
0.387794
0.339454
0.307227
0.283057
0.210548
0.162208
0.105811
0.105811
0.146094
0.057471
0.081641
0.009132
0.033301
0.017188
-0.006982
-0.015038
-0.023095
-0.015038
0.001075
-0.023095
-0.039208
-0.006982
0.001075
-0.047265
0.009132
-0.039208
0.001075
-0.023095
-0.006982
-0.031152
-0.047265
-0.031152
-0.023095
-0.006982
0.001075
-0.015038
0.009132
-0.023095
-0.023095
-0.015038
0.017188
-0.023095
-0.047265
-0.006982
-0.039208
0.017188
0.162208
0.242774
0.266944
0.234717
0.170264
0.170264
0.170264
0.089698
0.089698
0.025245
-0.160058
-0.321191
-0.401757
-0.458154
-0.433984
-0.425927
-0.377587
-0.425927
-0.401757
-0.353417
-0.337304
-0.280908
-0.184228
-0.184228
-0.119775
-0.119775
-0.095605
-0.103661
-0.119775
-0.047265
-0.006982
-0.015038
0.001075
0.025245
0.017188
-0.006982
0.017188
0.001075
-0.006982
0.001075
0.009132
0.041358
-0.031152
-0.023095
-0.015038
-0.023095
-0.031152
-0.023095
-0.006982
-0.015038
-0.015038
-0.015038
-0.015038
-0.015038
0.001075
-0.039208
-0.047265
-0.023095
-0.047265
-0.031152
-0.006982
-0.031152
-0.023095
-0.031152
-0.031152
-0.023095
0.001075
-0.023095
-0.039208
-0.039208
-0.031152
-0.031152
-0.055322
-0.015038
0.113868
0.250831
0.387794
0.420020
0.411964
0.468360
0.395850
0.347510
0.387794
0.395850
0.323341
0.210548
0.186378
0.194434
0.113868
0.081641
0.081641
0.081641
0.017188
0.025245
0.033301
0.001075
-0.023095
-0.023095
-0.006982
-0.023095
-0.031152
-0.023095
-0.023095
-0.015038
0.001075
-0.047265
-0.039208
-0.015038
-0.023095
-0.006982
-0.015038
-0.023095
-0.006982
-0.031152
-0.023095
-0.031152
0.017188
-0.031152
0.009132
0.009132
0.017188
-0.006982
-0.015038
0.009132
0.001075
-0.031152
0.009132
0.017188
0.025245
-0.006982
0.009132
0.009132
0.009132
0.009132
0.009132
0.009132
0.025245
-0.006982
-0.055322
-0.264794
-0.409814
-0.458154
-0.433984
-0.409814
-0.409814
-0.385644
-0.417870
-0.353417
-0.337304
-0.256738
-0.143945
0.017188
0.105811
0.138038
0.121925
0.105811
0.073585
0.081641
0.073585
0.113868
0.065528
0.025245
-0.006982
0.017188
0.001075
-0.006982
0.025245
0.041358
-0.015038
-0.023095
-0.015038
0.001075
0.017188
0.009132
0.001075
-0.006982
0.001075
-0.031152
-0.055322
0.001075
0.009132
-0.039208
-0.006982
-0.006982
-0.023095
-0.039208
-0.047265
-0.031152
-0.063378
-0.039208
-0.023095
-0.031152
-0.063378
0.009132
-0.055322
-0.039208
-0.031152
-0.023095
-0.039208
-0.031152
-0.039208
-0.006982
0.017188
0.194434
0.371680
0.428077
0.411964
0.428077
0.411964
0.428077
0.379737
0.323341
0.283057
0.234717
0.194434
0.146094
0.105811
0.081641
0.049415
0.097755
0.041358
0.065528
0.025245
0.017188
0.009132
0.001075
-0.047265
-0.047265
-0.031152
-0.015038
-0.031152
-0.015038
0.017188
-0.031152
0.001075
-0.047265
-0.023095
-0.006982
-0.006982
0.001075
-0.006982
0.001075
-0.031152
0.001075
0.009132
-0.023095
0.001075
-0.039208
0.001075
-0.015038
-0.006982
0.017188
-0.039208
-0.006982
0.049415
0.025245
0.033301
0.017188
0.001075
-0.006982
0.017188
-0.015038
0.017188
0.025245
0.033301
0.001075
-0.047265
-0.192284
-0.345361
-0.393700
-0.417870
-0.417870
-0.385644
-0.409814
-0.433984
-0.385644
-0.321191
-0.240624
-0.160058
-0.152001
-0.103661
-0.111718
-0.087548
-0.079491
-0.039208
-0.023095
-0.031152
-0.023095
-0.006982
0.025245
0.033301
0.057471
-0.015038
-0.006982
0.017188
0.001075
-0.006982
0.009132
0.025245
0.009132
-0.023095
-0.015038
0.009132
-0.031152
-0.031152
-0.023095
-0.047265
-0.047265
0.089698
0.178321
0.218604
0.210548
0.170264
0.170264
0.146094
0.081641
0.033301
0.033301
0.009132
0.017188
0.009132
0.009132
-0.031152
-0.023095
-0.023095
0.001075
-0.015038
-0.015038
-0.031152
-0.039208
-0.006982
0.154151
0.307227
0.395850
0.411964
0.379737
0.411964
0.355567
0.395850
0.339454
0.258887
0.226661
0.178321
0.113868
0.097755
0.089698
0.065528
0.073585
0.073585
0.033301
0.025245
0.009132
-0.015038
0.033301
-0.023095
-0.023095
-0.055322
0.009132
-0.047265
-0.023095
0.009132
-0.023095
-0.031152
-0.006982
0.001075
0.001075
0.001075
-0.006982
0.001075
-0.006982
-0.031152
0.025245
0.001075
0.009132
0.001075
0.017188
0.041358
0.017188
0.009132
0.009132
-0.015038
0.009132
0.033301
0.001075
-0.006982
0.001075
0.017188
0.041358
-0.006982
0.009132
0.009132
-0.015038
-0.006982
0.017188
-0.006982
-0.192284
-0.329247
-0.401757
-0.433984
-0.425927
-0.409814
-0.409814
-0.377587
-0.385644
-0.321191
-0.248681
-0.200341
-0.152001
-0.143945
-0.111718
-0.079491
-0.079491
-0.031152
-0.006982
0.025245
-0.015038
0.009132
-0.015038
-0.006982
0.041358
0.017188
0.025245
0.001075
0.025245
0.001075
0.001075
-0.006982
0.009132
-0.039208
0.009132
-0.015038
-0.015038
0.001075
-0.006982
0.009132
-0.031152
-0.023095
-0.031152
-0.023095
-0.039208
-0.031152
-0.023095
-0.047265
-0.047265
-0.015038
-0.015038
-0.039208
-0.023095
-0.031152
-0.047265
-0.023095
-0.055322
-0.039208
-0.071435
-0.047265
-0.039208
-0.055322
-0.047265
-0.031152
0.170264
0.291114
0.411964
0.581153
0.637550
0.621436
0.653663
0.589210
0.516700
0.436134
0.355567
0.258887
0.218604
0.146094
0.097755
0.089698
0.065528
0.089698
0.033301
0.001075
-0.015038
-0.006982
-0.023095
-0.023095
-0.031152
-0.031152
-0.031152
-0.023095
-0.023095
0.001075
-0.015038
-0.031152
0.001075
-0.015038
-0.047265
-0.023095
0.017188
0.009132
-0.047265
0.001075
-0.015038
0.009132
-0.023095
0.001075
0.001075
0.001075
0.009132
0.025245
0.025245
0.001075
0.001075
0.009132
0.001075
-0.006982
-0.015038
-0.015038
-0.023095
-0.015038
0.017188
0.025245
0.009132
0.041358
0.025245
-0.031152
-0.200341
-0.353417
-0.417870
-0.482324
-0.433984
-0.401757
-0.425927
-0.393700
-0.377587
-0.337304
-0.232568
-0.216454
-0.176171
-0.119775
-0.119775
-0.095605
-0.079491
-0.071435
-0.039208
0.017188
-0.039208
0.009132
-0.015038
0.025245
0.025245
-0.006982
0.009132
-0.015038
-0.006982
-0.031152
0.025245
0.017188
0.017188
0.001075
-0.015038
-0.023095
-0.023095
-0.015038
-0.039208
-0.039208
-0.023095
-0.039208
-0.047265
-0.015038
-0.023095
-0.031152
0.001075
-0.071435
-0.039208
-0.023095
-0.023095
-0.006982
0.001075
-0.023095
-0.031152
-0.023095
-0.039208
-0.023095
-0.039208
-0.031152
-0.031152
-0.031152
-0.031152
-0.006982
0.162208
0.307227
0.403907
0.379737
0.403907
0.371680
0.420020
0.379737
0.339454
0.323341
0.218604
0.178321
0.129981
0.081641
0.081641
0.049415
0.025245
0.009132
0.017188
0.009132
0.009132
-0.031152
0.001075
-0.031152
-0.031152
-0.031152
-0.039208
-0.031152
-0.047265
-0.015038
0.009132
0.129981
0.242774
0.258887
0.242774
0.202491
0.170264
0.162208
0.162208
0.113868
0.113868
0.105811
0.081641
0.041358
0.033301
0.017188
0.001075
0.025245
-0.015038
0.001075
0.025245
-0.015038
-0.015038
-0.006982
-0.031152
0.009132
0.025245
0.001075
-0.015038
0.009132
0.017188
0.001075
-0.023095
-0.023095
-0.208398
-0.337304
-0.425927
-0.425927
-0.417870
-0.425927
-0.401757
-0.385644
-0.353417
-0.321191
-0.240624
-0.192284
-0.143945
-0.152001
-0.111718
-0.119775
-0.071435
-0.047265
0.001075
-0.006982
-0.015038
0.001075
0.009132
-0.006982
-0.006982
0.017188
-0.031152
0.009132
0.009132
-0.006982
0.025245
0.001075
-0.023095
-0.015038
-0.015038
0.001075
0.001075
-0.006982
-0.006982
0.001075
-0.006982
0.009132
-0.023095
-0.023095
-0.023095
-0.015038
-0.039208
-0.039208
-0.006982
-0.031152
0.001075
0.009132
0.001075
-0.015038
-0.039208
-0.047265
-0.055322
-0.006982
-0.031152
0.001075
-0.039208
-0.055322
-0.039208
-0.023095
0.154151
0.299171
0.363624
0.379737
0.379737
0.347510
0.355567
0.355567
0.323341
0.258887
0.218604
0.170264
0.138038
0.081641
0.081641
0.065528
0.105811
0.097755
0.033301
-0.006982
0.009132
-0.023095
-0.039208
-0.023095
-0.031152
-0.015038
-0.023095
-0.031152
-0.031152
-0.047265
-0.023095
-0.031152
-0.031152
-0.006982
-0.015038
-0.015038
-0.015038
-0.015038
-0.015038
-0.015038
0.001075
0.001075
-0.031152
0.001075
0.025245
-0.031152
0.001075
-0.006982
0.009132
0.025245
0.001075
0.001075
-0.031152
0.049415
0.162208
0.186378
0.258887
0.194434
0.234717
0.210548
0.138038
0.089698
0.073585
0.001075
-0.176171
-0.345361
-0.417870
-0.433984
-0.385644
-0.417870
-0.425927
-0.409814
-0.345361
-0.280908
-0.240624
-0.208398
-0.168115
-0.152001
-0.111718
-0.071435
-0.079491
-0.039208
-0.015038
-0.023095
-0.015038
0.025245
-0.023095
0.017188
0.017188
0.001075
-0.031152
-0.023095
-0.006982
-0.006982
0.017188
0.001075
-0.023095
-0.006982
-0.006982
-0.047265
-0.031152
-0.015038
-0.006982
-0.047265
-0.023095
-0.023095
-0.039208
-0.006982
-0.023095
-0.015038
-0.031152
-0.039208
-0.006982
-0.031152
-0.047265
-0.039208
-0.006982
-0.015038
-0.031152
-0.039208
-0.047265
-0.039208
-0.031152
-0.023095
-0.047265
-0.023095
-0.023095
0.025245
0.162208
0.323341
0.403907
0.395850
0.420020
0.379737
0.371680
0.363624
0.315284
0.250831
0.210548
0.186378
0.121925
0.154151
0.113868
0.097755
0.081641
0.041358
0.025245
-0.015038
-0.031152
-0.031152
-0.006982
-0.006982
-0.023095
-0.031152
-0.023095
0.017188
-0.031152
-0.023095
-0.006982
-0.031152
-0.023095
-0.015038
-0.015038
-0.015038
-0.015038
-0.006982
-0.006982
0.001075
-0.023095
-0.023095
-0.039208
0.001075
0.009132
0.001075
0.001075
0.025245
0.009132
0.001075
-0.015038
0.057471
0.041358
-0.015038
0.033301
-0.006982
0.009132
-0.006982
-0.031152
-0.031152
0.001075
-0.015038
-0.006982
-0.055322
-0.200341
-0.353417
-0.474267
-0.458154
-0.425927
-0.433984
-0.409814
-0.385644
-0.377587
-0.288964
-0.240624
-0.208398
-0.168115
-0.111718
-0.095605
-0.119775
-0.095605
-0.079491
-0.039208
0.041358
0.202491
0.234717
0.242774
0.250831
0.202491
0.154151
0.154151
0.146094
0.065528
0.033301
0.033301
0.009132
0.041358
0.025245
0.033301
0.017188
0.009132
-0.006982
0.009132
0.001075
0.025245
-0.015038
-0.023095
-0.023095
-0.023095
-0.006982
0.009132
-0.031152
-0.055322
-0.031152
-0.006982
0.017188
0.001075
-0.023095
-0.047265
-0.047265
-0.039208
-0.023095
0.001075
-0.006982
-0.047265
-0.031152
-0.039208
0.025245
0.170264
0.339454
0.339454
0.411964
0.395850
0.387794
0.347510
0.355567
0.347510
0.242774
0.218604
0.170264
0.154151
0.089698
0.049415
0.089698
0.057471
0.033301
0.041358
0.033301
0.009132
-0.015038
-0.023095
-0.071435
-0.039208
0.001075
-0.039208
-0.031152
-0.039208
-0.006982
-0.023095
-0.031152
-0.031152
0.009132
-0.031152
-0.039208
-0.006982
0.001075
0.025245
-0.039208
0.001075
0.041358
0.017188
0.001075
-0.015038
-0.015038
0.033301
-0.006982
0.001075
-0.015038
0.001075
0.025245
-0.006982
0.017188
0.009132
-0.006982
0.001075
-0.015038
-0.015038
-0.006982
0.009132
0.009132
-0.023095
-0.047265
-0.216454
-0.369531
-0.442040
-0.466210
-0.442040
-0.425927
-0.417870
-0.401757
-0.345361
-0.313134
-0.240624
-0.192284
-0.160058
-0.119775
-0.111718
-0.095605
-0.071435
-0.039208
-0.031152
-0.006982
0.001075
-0.015038
0.001075
-0.015038
-0.015038
-0.023095
-0.006982
0.001075
-0.015038
-0.015038
-0.006982
-0.006982
0.001075
0.009132
-0.023095
-0.023095
-0.015038
-0.006982
-0.015038
-0.031152
-0.063378
-0.047265
-0.039208
-0.047265
0.025245
0.146094
0.218604
0.210548
0.202491
0.162208
0.129981
0.146094
0.129981
0.041358
0.033301
-0.015038
0.025245
0.001075
0.001075
0.017188
-0.055322
-0.006982
-0.039208
0.001075
0.194434
0.331397
0.395850
0.387794
0.379737
0.387794
0.355567
0.355567
0.307227
0.226661
0.210548
0.154151
0.105811
0.081641
0.089698
0.041358
0.057471
0.025245
0.001075
0.025245
-0.023095
0.009132
-0.006982
-0.031152
-0.031152
-0.023095
-0.047265
-0.031152
-0.015038
-0.023095
-0.015038
-0.023095
0.001075
-0.006982
-0.006982
0.017188
-0.039208
0.001075
-0.006982
-0.006982
-0.015038
0.001075
0.025245
-0.031152
0.001075
-0.006982
-0.015038
-0.015038
-0.031152
-0.015038
0.009132
-0.006982
0.025245
0.009132
0.025245
0.009132
0.009132
-0.015038
-0.015038
-0.015038
0.009132
0.001075
-0.015038
0.001075
-0.232568
-0.353417
-0.393700
-0.385644
-0.425927
-0.377587
-0.409814
-0.385644
-0.329247
-0.280908
-0.192284
-0.200341
-0.168115
-0.127831
-0.079491
-0.103661
-0.071435
-0.039208
-0.023095
-0.039208
0.009132
0.001075
-0.015038
0.017188
-0.015038
0.001075
0.041358
0.001075
-0.006982
0.001075
0.017188
0.033301
-0.031152
0.017188
0.009132
-0.015038
-0.015038
-0.015038
-0.039208
-0.031152
-0.006982
-0.006982
-0.015038
-0.039208
-0.047265
-0.023095
-0.023095
-0.031152
-0.031152
-0.023095
-0.015038
-0.006982
-0.055322
-0.039208
-0.023095
-0.047265
-0.023095
-0.039208
-0.047265
-0.039208
0.009132
-0.031152
-0.031152
0.025245
0.170264
0.331397
0.387794
0.371680
0.363624
0.323341
0.347510
0.347510
0.323341
0.403907
0.452247
0.420020
0.379737
0.323341
0.275001
0.226661
0.178321
0.121925
0.049415
0.049415
0.041358
0.001075
0.025245
-0.055322
-0.023095
-0.039208
-0.039208
-0.047265
-0.023095
-0.031152
-0.015038
-0.015038
-0.006982
-0.039208
-0.031152
-0.006982
-0.031152
-0.015038
0.025245
0.001075
-0.031152
0.001075
-0.015038
0.025245
-0.015038
-0.006982
-0.015038
0.001075
0.001075
0.009132
0.025245
0.017188
0.009132
0.017188
0.009132
0.033301
0.001075
0.001075
0.009132
0.017188
-0.006982
0.017188
-0.031152
-0.055322
-0.192284
-0.377587
-0.442040
-0.458154
-0.409814
-0.401757
-0.417870
-0.369531
-0.353417
-0.288964
-0.216454
-0.200341
-0.152001
-0.111718
-0.111718
-0.063378
-0.039208
-0.055322
-0.039208
-0.015038
0.001075
0.009132
0.001075
0.001075
0.001075
-0.015038
-0.006982
0.009132
0.001075
-0.006982
0.009132
0.009132
-0.006982
0.025245
-0.015038
-0.015038
-0.006982
0.009132
-0.039208
-0.055322
-0.006982
-0.055322
-0.015038
0.009132
-0.006982
0.001075
-0.047265
0.017188
-0.015038
-0.047265
-0.006982
0.001075
-0.023095
-0.031152
-0.047265
0.001075
-0.015038
-0.015038
-0.039208
-0.055322
-0.039208
-0.031152
-0.006982
0.041358
0.186378
0.315284
0.387794
0.395850
0.403907
0.371680
0.387794
0.387794
0.339454
0.266944
0.186378
0.170264
0.113868
0.105811
0.081641
0.049415
0.025245
0.033301
0.033301
0.001075
-0.006982
-0.031152
0.017188
-0.031152
-0.047265
-0.047265
-0.031152
-0.039208
-0.015038
-0.039208
-0.047265
-0.031152
0.105811
0.218604
0.202491
0.202491
0.210548
0.178321
0.138038
0.105811
0.097755
0.049415
0.033301
0.033301
0.017188
0.025245
0.017188
-0.015038
0.017188
0.025245
-0.031152
0.009132
0.049415
-0.015038
0.009132
-0.015038
0.017188
-0.023095
-0.023095
0.033301
-0.006982
0.017188
0.001075
-0.063378
-0.232568
-0.353417
-0.433984
-0.409814
-0.393700
-0.442040
-0.385644
-0.393700
-0.337304
-0.272851
-0.224511
-0.168115
-0.160058
-0.127831
-0.095605
-0.063378
-0.071435
-0.071435
-0.039208
-0.015038
0.017188
0.001075
0.033301
0.001075
0.009132
0.009132
0.009132
-0.023095
-0.006982
-0.039208
-0.006982
-0.006982
-0.015038
-0.039208
0.009132
-0.006982
-0.039208
-0.023095
0.017188
-0.015038
-0.015038
0.001075
0.009132
0.009132
-0.023095
-0.039208
-0.031152
-0.023095
-0.047265
-0.047265
-0.039208
-0.023095
-0.015038
-0.031152
-0.031152
-0.023095
-0.039208
-0.047265
0.017188
-0.039208
-0.039208
-0.039208
-0.023095
0.017188
0.178321
0.331397
0.387794
0.403907
0.403907
0.379737
0.371680
0.403907
0.307227
0.266944
0.194434
0.162208
0.138038
0.065528
0.113868
0.033301
0.057471
0.017188
-0.006982
0.009132
-0.006982
-0.015038
-0.039208
-0.055322
-0.023095
-0.023095
-0.039208
0.001075
-0.023095
-0.063378
-0.031152
-0.023095
-0.015038
-0.031152
0.001075
-0.015038
-0.015038
-0.015038
-0.031152
0.009132
0.001075
-0.006982
-0.023095
0.009132
0.009132
0.009132
-0.023095
0.001075
-0.015038
-0.015038
-0.023095
-0.031152
-0.023095
-0.006982
-0.039208
-0.015038
0.033301
-0.031152
-0.023095
-0.023095
-0.039208
0.049415
0.178321
0.210548
0.049415
-0.152001
-0.200341
-0.240624
-0.232568
-0.264794
-0.272851
-0.313134
-0.288964
-0.224511
-0.168115
-0.160058
-0.143945
-0.127831
-0.127831
-0.079491
-0.095605
-0.055322
-0.023095
-0.015038
-0.006982
0.017188
0.017188
0.009132
0.001075
0.025245
0.073585
0.025245
0.001075
-0.023095
-0.023095
-0.006982
-0.006982
-0.015038
0.017188
-0.015038
-0.006982
0.001075
-0.006982
-0.023095
-0.023095
-0.023095
-0.023095
-0.055322
-0.039208
0.017188
-0.023095
-0.015038
0.017188
-0.031152
-0.015038
-0.023095
-0.015038
-0.039208
-0.015038
-0.023095
-0.039208
-0.015038
0.001075
-0.031152
-0.015038
-0.015038
-0.039208
0.017188
0.170264
0.299171
0.403907
0.403907
0.371680
0.387794
0.379737
0.339454
0.315284
0.258887
0.226661
0.170264
0.113868
0.146094
0.089698
0.065528
0.041358
0.001075
0.025245
-0.006982
-0.006982
-0.015038
0.001075
0.009132
-0.023095
0.001075
-0.031152
-0.015038
-0.039208
-0.023095
0.001075
-0.031152
-0.031152
-0.015038
-0.015038
-0.006982
-0.006982
-0.023095
0.009132
-0.006982
0.009132
0.009132
-0.039208
0.009132
-0.006982
0.009132
0.001075
0.025245
0.017188
-0.015038
0.001075
0.025245
0.001075
0.033301
0.033301
-0.006982
0.025245
0.017188
0.025245
0.009132
-0.006982
-0.015038
0.017188
-0.055322
-0.240624
-0.377587
-0.409814
-0.425927
-0.409814
-0.433984
-0.425927
-0.409814
-0.361474
-0.280908
-0.240624
-0.168115
-0.184228
-0.143945
-0.127831
-0.119775
-0.055322
-0.047265
-0.047265
-0.006982
-0.015038
-0.039208
0.025245
0.170264
0.218604
0.275001
0.218604
0.226661
0.154151
0.146094
0.097755
0.073585
0.065528
0.025245
0.017188
0.009132
-0.031152
0.017188
0.001075
0.009132
-0.023095
-0.006982
-0.006982
-0.031152
0.017188
-0.015038
-0.015038
-0.023095
-0.031152
-0.047265
-0.039208
-0.015038
0.001075
0.001075
-0.039208
-0.039208
-0.039208
-0.031152
-0.039208
0.001075
-0.055322
-0.047265
-0.023095
0.001075
0.234717
0.363624
0.387794
0.395850
0.379737
0.395850
0.347510
0.371680
0.291114
0.275001
0.210548
0.146094
0.154151
0.113868
0.097755
0.081641
0.065528
0.041358
0.009132
-0.031152
-0.023095
-0.023095
-0.023095
-0.047265
0.009132
-0.039208
0.017188
-0.015038
-0.023095
-0.031152
-0.039208
0.009132
-0.006982
0.009132
0.001075
-0.006982
-0.047265
-0.006982
0.017188
0.009132
-0.015038
0.001075
-0.006982
-0.006982
-0.006982
-0.006982
0.001075
-0.006982
0.001075
0.025245
-0.006982
0.009132
0.009132
-0.006982
0.033301
0.025245
-0.015038
-0.006982
0.001075
0.009132
0.009132
0.025245
0.017188
-0.023095
-0.232568
-0.361474
-0.425927
-0.433984
-0.369531
-0.377587
-0.377587
-0.393700
-0.353417
-0.264794
-0.216454
-0.192284
-0.152001
-0.119775
-0.127831
-0.071435
-0.071435
-0.071435
-0.015038
-0.031152
0.017188
0.001075
0.001075
0.001075
-0.006982
-0.015038
0.017188
-0.006982
0.017188
0.025245
0.001075
0.025245
0.017188
-0.015038
-0.015038
-0.047265
0.017188
-0.055322
0.001075
-0.006982
-0.031152
-0.015038
-0.006982
-0.015038
-0.023095
-0.039208
-0.023095
-0.055322
-0.039208
-0.039208
-0.006982
0.073585
0.210548
0.242774
0.202491
0.194434
0.162208
0.154151
0.081641
0.041358
0.025245
0.049415
0.009132
0.049415
0.250831
0.355567
0.411964
0.411964
0.379737
0.379737
0.387794
0.347510
0.323341
0.250831
0.202491
0.162208
0.146094
0.073585
0.073585
0.057471
0.049415
0.025245
0.001075
-0.023095
-0.015038
-0.047265
-0.023095
-0.039208
0.009132
-0.023095
-0.015038
0.001075
-0.006982
-0.015038
-0.006982
-0.006982
0.017188
0.001075
0.017188
0.001075
-0.006982
-0.031152
-0.031152
-0.015038
0.009132
0.001075
-0.015038
0.017188
-0.015038
0.033301
0.049415
0.033301
0.001075
0.017188
0.009132
0.001075
0.001075
-0.023095
0.017188
0.033301
0.001075
0.001075
-0.006982
0.001075
0.009132
0.017188
0.009132
-0.055322
-0.264794
-0.361474
-0.369531
-0.393700
-0.385644
-0.401757
-0.409814
-0.393700
-0.369531
-0.264794
-0.224511
-0.208398
-0.135888
-0.152001
-0.095605
-0.119775
-0.047265
-0.055322
-0.039208
-0.039208
-0.023095
0.041358
0.025245
0.025245
0.001075
0.001075
-0.006982
0.025245
0.025245
0.017188
-0.015038
0.033301
0.009132
0.025245
0.001075
-0.015038
0.001075
-0.015038
-0.031152
-0.039208
-0.015038
-0.015038
-0.006982
-0.031152
-0.047265
-0.023095
-0.023095
0.001075
-0.031152
-0.047265
-0.039208
-0.039208
-0.039208
-0.023095
-0.015038
-0.031152
0.001075
-0.023095
-0.006982
-0.015038
0.001075
0.009132
-0.006982
0.041358
0.210548
0.355567
0.355567
0.403907
0.371680
0.387794
0.347510
0.363624
0.307227
0.242774
0.315284
0.379737
0.331397
0.299171
0.283057
0.242774
0.170264
0.138038
0.081641
0.049415
0.049415
-0.015038
0.009132
-0.031152
-0.023095
-0.031152
0.001075
0.041358
-0.006982
-0.023095
-0.023095
-0.047265
-0.031152
-0.023095
-0.006982
-0.015038
-0.031152
0.009132
0.025245
-0.015038
0.017188
0.009132
0.009132
-0.006982
0.001075
-0.023095
-0.006982
-0.006982
0.001075
-0.015038
0.009132
0.017188
0.017188
0.001075
0.041358
0.009132
0.049415
-0.015038
-0.006982
0.025245
0.017188
0.041358
0.017188
-0.071435
-0.240624
-0.369531
-0.425927
-0.393700
-0.409814
-0.409814
-0.401757
-0.409814
-0.361474
-0.288964
-0.192284
-0.160058
-0.119775
-0.127831
-0.079491
-0.103661
-0.031152
-0.063378
-0.023095
-0.006982
0.009132
-0.015038
-0.031152
0.001075
0.017188
0.001075
0.025245
0.009132
0.025245
0.025245
0.025245
-0.006982
0.009132
0.001075
0.009132
-0.006982
-0.039208
0.001075
-0.015038
-0.006982
-0.015038
-0.039208
-0.031152
0.001075
-0.055322
-0.015038
-0.031152
-0.031152
-0.031152
-0.031152
-0.039208
-0.047265
-0.023095
-0.039208
-0.006982
0.001075
0.033301
-0.015038
0.009132
-0.006982
-0.015038
-0.023095
-0.023095
0.073585
0.202491
0.331397
0.428077
0.428077
0.371680
0.395850
0.387794
0.355567
0.323341
0.258887
0.202491
0.162208
0.121925
0.097755
0.097755
0.049415
0.081641
0.033301
0.009132
-0.039208
0.001075
-0.015038
0.017188
-0.039208
0.017188
-0.023095
-0.055322
-0.039208
-0.006982
-0.039208
-0.015038
-0.031152
-0.031152
-0.031152
-0.039208
-0.039208
-0.006982
-0.031152
-0.031152
0.033301
0.138038
0.250831
0.250831
0.258887
0.186378
0.218604
0.170264
0.194434
0.146094
0.113868
0.049415
0.081641
0.049415
0.001075
0.025245
0.009132
0.017188
0.017188
0.009132
0.041358
-0.015038
0.025245
-0.006982
-0.063378
-0.248681
-0.361474
-0.409814
-0.417870
-0.361474
-0.393700
-0.393700
-0.369531
-0.345361
-0.280908
-0.240624
-0.184228
-0.160058
-0.119775
-0.119775
-0.087548
-0.063378
-0.055322
-0.015038
0.033301
0.017188
0.025245
0.001075
0.017188
0.017188
-0.015038
0.017188
-0.015038
0.001075
-0.006982
0.025245
0.017188
-0.006982
0.025245
-0.031152
0.001075
-0.023095
0.033301
0.009132
0.009132
-0.023095
-0.015038
-0.023095
0.001075
-0.055322
-0.031152
-0.015038
-0.039208
-0.031152
-0.015038
0.049415
-0.006982
-0.006982
0.025245
-0.015038
-0.047265
0.009132
-0.015038
-0.039208
-0.006982
0.025245
0.017188
-0.006982
0.089698
0.226661
0.355567
0.420020
0.403907
0.363624
0.379737
0.403907
0.379737
0.339454
0.234717
0.202491
0.146094
0.121925
0.089698
0.073585
0.081641
0.025245
0.049415
-0.031152
-0.006982
0.009132
-0.015038
-0.039208
-0.006982
-0.023095
0.001075
-0.023095
0.001075
-0.006982
-0.006982
-0.031152
-0.006982
0.001075
-0.039208
-0.015038
-0.015038
-0.006982
-0.031152
-0.006982
-0.015038
-0.006982
0.025245
-0.006982
0.001075
0.025245
0.001075
-0.006982
-0.006982
0.001075
0.025245
0.009132
0.025245
0.033301
0.017188
0.009132
0.001075
0.041358
0.049415
0.025245
0.025245
-0.006982
-0.015038
-0.015038
-0.071435
-0.240624
-0.248681
-0.168115
-0.168115
-0.168115
-0.184228
-0.208398
-0.208398
-0.184228
-0.152001
-0.119775
-0.087548
-0.103661
-0.103661
-0.063378
-0.087548
-0.047265
-0.039208
-0.023095
-0.047265
-0.006982
0.017188
0.017188
0.025245
0.025245
0.009132
0.025245
-0.006982
0.009132
-0.006982
0.033301
-0.015038
-0.015038
-0.023095
-0.006982
-0.023095
-0.006982
0.041358
-0.023095
-0.039208
-0.031152
-0.015038
-0.015038
-0.023095
-0.006982
0.017188
-0.015038
0.009132
-0.006982
-0.047265
-0.031152
-0.047265
-0.023095
-0.015038
-0.015038
-0.055322
-0.031152
0.017188
-0.006982
-0.006982
-0.006982
-0.006982
-0.031152
0.041358
0.258887
0.371680
0.411964
0.387794
0.355567
0.387794
0.379737
0.379737
0.339454
0.226661
0.210548
0.170264
0.129981
0.121925
0.089698
0.089698
0.057471
0.033301
0.017188
0.001075
0.017188
0.033301
0.001075
0.041358
-0.023095
0.009132
0.001075
-0.006982
-0.023095
0.033301
-0.031152
-0.015038
0.041358
-0.015038
-0.006982
-0.006982
-0.031152
-0.023095
0.001075
-0.006982
0.025245
0.009132
-0.023095
0.033301
0.025245
0.025245
0.041358
0.009132
0.041358
0.025245
-0.023095
0.025245
0.033301
0.017188
-0.015038
0.025245
0.009132
0.025245
0.025245
-0.015038
0.025245
0.001075
-0.023095
-0.063378
-0.264794
-0.345361
-0.417870
-0.401757
-0.393700
-0.385644
-0.409814
-0.393700
-0.361474
-0.240624
-0.200341
-0.143945
-0.135888
-0.119775
-0.135888
-0.071435
-0.063378
-0.055322
-0.039208
0.001075
-0.015038
-0.023095
0.009132
-0.031152
0.017188
0.009132
-0.023095
0.001075
-0.039208
0.105811
0.218604
0.218604
0.242774
0.186378
0.154151
0.113868
0.121925
0.041358
0.057471
0.049415
0.001075
0.041358
0.001075
-0.006982
-0.023095
-0.015038
-0.006982
-0.006982
-0.015038
-0.039208
-0.055322
-0.023095
-0.063378
-0.006982
-0.006982
-0.015038
-0.023095
-0.039208
-0.039208
-0.023095
-0.023095
-0.015038
-0.055322
0.065528
0.266944
0.355567
0.460303
0.371680
0.387794
0.428077
0.371680
0.347510
0.299171
0.218604
0.186378
0.129981
0.154151
0.146094
0.089698
0.089698
0.057471
0.041358
0.001075
0.025245
-0.023095
0.001075
0.009132
-0.031152
0.009132
0.009132
-0.006982
-0.047265
-0.006982
0.009132
0.001075
0.001075
-0.023095
-0.015038
0.009132
-0.015038
-0.015038
0.009132
0.009132
-0.015038
0.025245
0.041358
0.001075
-0.023095
0.025245
0.033301
0.025245
0.009132
0.049415
0.017188
0.009132
0.041358
-0.015038
-0.006982
0.057471
0.009132
0.001075
0.017188
0.033301
-0.006982
0.033301
0.025245
0.017188
-0.055322
-0.256738
-0.385644
-0.433984
-0.442040
-0.417870
-0.393700
-0.393700
-0.369531
-0.321191
-0.240624
-0.232568
-0.152001
-0.143945
-0.127831
-0.111718
-0.039208
-0.079491
-0.031152
-0.023095
-0.006982
0.009132
0.033301
-0.015038
0.009132
0.009132
0.025245
0.017188
0.041358
0.057471
-0.023095
-0.015038
0.025245
0.001075
0.001075
-0.023095
0.017188
-0.015038
0.001075
0.009132
-0.023095
-0.006982
-0.015038
-0.006982
-0.015038
-0.023095
-0.023095
-0.023095
-0.015038
-0.071435
-0.031152
-0.031152
-0.015038
0.089698
0.178321
0.202491
0.218604
0.178321
0.162208
0.129981
0.113868
0.089698
0.057471
0.057471
0.097755
0.266944
0.347510
0.436134
0.395850
0.363624
0.363624
0.403907
0.363624
0.315284
0.226661
0.194434
0.162208
0.154151
0.089698
0.081641
0.089698
0.065528
0.033301
0.033301
-0.006982
-0.023095
-0.006982
-0.047265
-0.039208
-0.015038
-0.023095
0.017188
-0.006982
-0.006982
0.017188
-0.031152
-0.023095
0.009132
-0.023095
-0.023095
0.009132
-0.015038
-0.015038
0.001075
-0.039208
-0.015038
0.009132
-0.015038
0.025245
0.017188
0.025245
0.017188
0.017188
0.017188
-0.031152
0.009132
0.009132
0.001075
0.001075
-0.031152
0.001075
0.009132
0.025245
0.017188
0.065528
0.009132
-0.015038
-0.006982
-0.087548
-0.256738
-0.417870
-0.442040
-0.393700
-0.369531
-0.385644
-0.361474
