0.583657
0.583657
0.567544
0.583657
0.551430
0.615884
0.551430
0.511147
0.543374
0.591714
0.519204
0.527261
0.478921
0.438638
0.438638
0.470864
0.567544
0.462807
0.398354
0.333901
0.293618
0.245278
0.156655
0.100259
0.108315
0.140542
0.116372
0.108315
0.148598
0.108315
0.092202
0.076089
0.027749
0.003579
0.011636
-0.036704
0.003579
-0.028648
0.003579
-0.036704
-0.028648
0.043862
-0.004478
-0.004478
0.011636
0.027749
0.003579
0.051919
-0.004478
0.051919
0.019692
0.035805
0.035805
0.035805
0.068032
0.035805
0.051919
0.043862
0.019692
0.084145
0.019692
0.124429
0.277505
0.309731
0.285561
0.245278
0.213052
0.213052
0.204995
0.148598
0.084145
-0.101157
-0.439536
-0.584556
-0.632896
-0.608726
-0.632896
-0.576499
-0.600669
-0.552329
-0.528159
-0.503989
-0.503989
-0.495933
-0.471763
-0.383140
-0.342857
-0.238120
-0.254234
-0.246177
-0.189780
-0.149497
-0.173667
-0.133384
-0.125327
-0.101157
-0.068931
-0.044761
-0.012534
-0.028648
-0.020591
0.027749
0.011636
-0.028648
0.003579
0.019692
-0.004478
-0.020591
-0.004478
-0.020591
-0.020591
-0.036704
-0.036704
0.003579
0.019692
-0.020591
-0.028648
-0.012534
-0.004478
-0.012534
-0.020591
-0.028648
-0.012534
0.019692
-0.052818
-0.020591
0.011636
0.003579
-0.012534
-0.012534
-0.036704
-0.036704
-0.004478
-0.012534
-0.012534
0.188882
0.446694
0.607827
0.591714
0.599770
0.543374
0.543374
0.543374
0.503091
0.470864
0.486977
0.454751
0.374184
0.374184
0.309731
0.269448
0.245278
0.188882
0.156655
0.148598
0.100259
0.092202
0.076089
0.076089
0.011636
0.019692
-0.004478
0.011636
-0.028648
-0.028648
-0.028648
-0.020591
-0.020591
-0.036704
-0.004478
-0.028648
-0.028648
-0.012534
-0.028648
0.011636
0.011636
-0.012534
0.011636
0.019692
0.003579
0.051919
0.019692
0.011636
0.003579
0.027749
0.035805
0.035805
0.051919
0.051919
0.027749
0.011636
0.035805
0.051919
0.043862
0.043862
0.019692
-0.004478
0.011636
0.043862
0.011636
-0.012534
-0.286460
-0.407310
-0.495933
-0.512046
-0.544273
-0.536216
-0.487876
-0.455650
-0.415366
-0.439536
-0.431480
-0.383140
-0.350913
-0.189780
-0.004478
0.076089
0.092202
0.059975
0.076089
0.076089
0.092202
0.076089
0.076089
0.068032
0.035805
0.019692
0.019692
-0.012534
-0.004478
0.011636
0.003579
0.003579
-0.036704
0.003579
-0.036704
-0.020591
0.003579
-0.004478
0.003579
0.011636
-0.012534
0.003579
0.019692
-0.004478
-0.020591
-0.004478
-0.020591
-0.028648
-0.028648
-0.012534
0.043862
-0.044761
0.003579
-0.036704
-0.060874
-0.028648
-0.020591
-0.044761
-0.020591
-0.052818
-0.020591
0.003579
-0.028648
-0.012534
-0.044761
0.003579
0.180825
0.341958
0.422524
0.446694
0.422524
0.406411
0.374184
0.406411
0.374184
0.325845
0.277505
0.213052
0.164712
0.156655
0.100259
0.059975
0.059975
0.027749
0.035805
-0.012534
-0.020591
-0.028648
-0.060874
-0.020591
-0.012534
-0.036704
-0.044761
-0.052818
-0.052818
-0.036704
-0.004478
-0.004478
-0.028648
-0.004478
-0.020591
-0.004478
0.019692
0.011636
-0.012534
0.003579
-0.012534
0.019692
0.003579
0.019692
0.084145
0.011636
0.019692
0.011636
0.011636
0.003579
0.051919
0.019692
-0.004478
0.019692
0.011636
0.043862
0.011636
0.027749
0.019692
0.011636
-0.004478
0.011636
-0.004478
-0.060874
-0.205894
-0.318687
-0.431480
-0.439536
-0.439536
-0.415366
-0.431480
-0.407310
-0.423423
-0.318687
-0.302573
-0.238120
-0.157554
-0.157554
-0.133384
-0.125327
-0.093101
-0.052818
-0.060874
-0.004478
-0.004478
0.003579
0.003579
-0.036704
0.003579
-0.004478
0.003579
0.011636
-0.004478
-0.028648
-0.004478
-0.028648
-0.012534
-0.020591
-0.012534
-0.020591
-0.044761
-0.020591
-0.012534
0.035805
0.196938
0.213052
0.245278
0.188882
0.172768
0.140542
0.140542
0.084145
0.059975
0.043862
-0.004478
0.011636
0.019692
-0.012534
0.003579
-0.036704
-0.004478
-0.052818
-0.036704
-0.036704
-0.012534
-0.036704
-0.020591
-0.012534
0.116372
0.277505
0.374184
0.406411
0.422524
0.382241
0.406411
0.374184
0.358071
0.309731
0.229165
0.196938
0.156655
0.132485
0.100259
0.076089
0.059975
0.059975
0.019692
0.035805
-0.004478
-0.036704
-0.052818
-0.020591
-0.012534
-0.028648
-0.068931
-0.028648
-0.044761
-0.020591
-0.028648
-0.044761
-0.012534
0.035805
-0.004478
-0.012534
-0.004478
0.003579
-0.004478
-0.004478
-0.012534
0.019692
-0.012534
0.011636
0.011636
-0.020591
0.027749
0.059975
0.043862
0.035805
0.035805
0.019692
0.019692
-0.012534
0.027749
0.003579
0.011636
0.019692
-0.028648
-0.036704
0.019692
0.011636
0.003579
0.043862
-0.141441
-0.262290
-0.367027
-0.463706
-0.447593
-0.415366
-0.399253
-0.407310
-0.391196
-0.318687
-0.318687
-0.222007
-0.189780
-0.157554
-0.133384
-0.085044
-0.028648
-0.044761
-0.004478
-0.044761
0.011636
0.019692
-0.004478
-0.028648
-0.020591
0.003579
0.003579
-0.004478
-0.012534
-0.036704
-0.020591
-0.004478
0.035805
0.003579
0.011636
-0.004478
0.019692
0.003579
-0.012534
0.019692
0.011636
-0.004478
-0.012534
-0.020591
-0.004478
-0.028648
-0.012534
-0.020591
-0.020591
0.011636
-0.044761
-0.036704
-0.020591
-0.012534
-0.052818
-0.060874
-0.020591
-0.036704
-0.020591
-0.028648
-0.068931
-0.044761
0.019692
0.156655
0.309731
0.478921
0.591714
0.591714
0.535317
0.527261
0.446694
0.398354
0.398354
0.333901
0.253335
0.229165
0.164712
0.092202
0.100259
0.059975
0.027749
0.035805
0.011636
-0.012534
-0.028648
-0.028648
-0.020591
-0.012534
-0.036704
-0.044761
-0.036704
-0.052818
-0.012534
-0.036704
-0.012534
-0.028648
-0.028648
0.003579
-0.036704
-0.004478
-0.020591
-0.004478
-0.020591
-0.028648
-0.004478
-0.004478
-0.004478
0.003579
0.019692
0.019692
0.003579
0.019692
-0.004478
0.027749
0.019692
0.011636
0.027749
0.003579
-0.012534
0.003579
0.011636
0.027749
0.003579
-0.004478
0.011636
0.011636
-0.004478
0.027749
-0.133384
-0.286460
-0.383140
-0.407310
-0.399253
-0.358970
-0.407310
-0.423423
-0.407310
-0.318687
-0.254234
-0.238120
-0.157554
-0.133384
-0.101157
-0.117271
-0.085044
-0.044761
-0.020591
0.003579
0.019692
0.019692
-0.012534
-0.012534
-0.004478
-0.012534
-0.004478
0.043862
-0.028648
0.019692
0.027749
-0.004478
-0.004478
0.011636
-0.004478
-0.028648
0.027749
-0.004478
0.011636
-0.036704
-0.036704
0.019692
-0.004478
-0.004478
-0.036704
-0.028648
-0.028648
-0.028648
-0.028648
-0.044761
-0.012534
-0.012534
-0.004478
-0.036704
-0.068931
-0.020591
-0.028648
-0.004478
-0.028648
-0.044761
-0.004478
-0.020591
-0.036704
-0.004478
0.124429
0.261391
0.374184
0.398354
0.414468
0.374184
0.341958
0.350014
0.374184
0.293618
0.245278
0.196938
0.148598
0.100259
0.076089
0.051919
0.051919
0.035805
0.011636
-0.012534
-0.028648
-0.044761
-0.036704
-0.076987
-0.028648
-0.052818
-0.052818
-0.044761
0.100259
0.172768
0.221108
0.229165
0.237222
0.180825
0.156655
0.100259
0.076089
0.027749
0.084145
0.027749
0.011636
0.027749
-0.012534
0.011636
0.011636
0.019692
-0.004478
0.019692
0.068032
0.003579
-0.004478
0.003579
0.011636
0.019692
0.011636
0.003579
0.011636
0.043862
0.027749
0.027749
0.035805
-0.012534
-0.020591
-0.020591
-0.125327
-0.286460
-0.423423
-0.391196
-0.431480
-0.431480
-0.407310
-0.407310
-0.391196
-0.350913
-0.270347
-0.213950
-0.157554
-0.141441
-0.125327
-0.068931
-0.076987
-0.076987
-0.052818
-0.020591
0.011636
-0.004478
-0.028648
0.011636
0.011636
0.011636
0.027749
-0.028648
0.027749
0.019692
0.019692
0.011636
0.019692
0.011636
-0.012534
-0.012534
-0.012534
0.003579
-0.036704
-0.012534
0.003579
-0.028648
-0.036704
-0.012534
0.011636
-0.020591
0.011636
-0.012534
-0.028648
-0.028648
-0.036704
-0.028648
-0.028648
0.003579
-0.028648
-0.028648
-0.012534
-0.020591
-0.020591
-0.004478
0.003579
-0.004478
-0.020591
-0.012534
0.116372
0.277505
0.366128
0.390298
0.406411
0.350014
0.366128
0.358071
0.374184
0.301675
0.213052
0.148598
0.172768
0.108315
0.108315
0.084145
0.051919
0.019692
0.019692
0.011636
-0.028648
-0.036704
-0.036704
-0.068931
-0.044761
-0.036704
-0.028648
0.027749
-0.044761
-0.020591
-0.052818
-0.036704
-0.012534
-0.036704
-0.036704
-0.036704
-0.044761
-0.020591
-0.020591
-0.052818
-0.020591
-0.012534
-0.004478
-0.012534
0.011636
-0.012534
-0.004478
0.011636
-0.028648
-0.004478
0.011636
-0.004478
-0.028648
0.059975
0.213052
0.229165
0.229165
0.221108
0.156655
0.204995
0.156655
0.140542
0.076089
0.035805
-0.109214
-0.278403
-0.399253
-0.431480
-0.415366
-0.399253
-0.423423
-0.399253
-0.391196
-0.302573
-0.254234
-0.189780
-0.157554
-0.149497
-0.093101
-0.076987
-0.117271
-0.060874
-0.004478
-0.044761
-0.004478
-0.004478
-0.012534
0.003579
-0.020591
0.003579
-0.012534
-0.012534
-0.028648
0.019692
-0.036704
-0.004478
-0.004478
0.019692
-0.004478
0.003579
-0.036704
-0.020591
-0.004478
0.011636
-0.028648
-0.044761
-0.020591
-0.028648
-0.004478
-0.012534
-0.004478
-0.036704
-0.036704
-0.052818
-0.044761
-0.068931
-0.044761
-0.044761
-0.036704
-0.004478
-0.028648
-0.052818
-0.052818
-0.012534
-0.036704
-0.028648
-0.052818
0.011636
0.116372
0.277505
0.390298
0.414468
0.358071
0.382241
0.350014
0.350014
0.325845
0.285561
0.237222
0.164712
0.132485
0.108315
0.076089
0.068032
0.068032
0.027749
0.011636
0.003579
-0.028648
-0.044761
-0.012534
0.003579
-0.060874
-0.044761
0.003579
-0.044761
-0.004478
-0.028648
0.003579
-0.020591
-0.028648
-0.020591
-0.004478
-0.036704
-0.004478
-0.020591
-0.012534
-0.020591
0.003579
-0.004478
0.035805
0.003579
-0.004478
0.003579
-0.004478
-0.020591
0.019692
0.003579
0.019692
0.003579
0.003579
0.019692
0.011636
-0.020591
0.003579
0.035805
-0.004478
0.035805
0.019692
-0.012534
0.003579
-0.012534
-0.157554
-0.318687
-0.391196
-0.383140
-0.423423
-0.399253
-0.447593
-0.431480
-0.399253
-0.326743
-0.254234
-0.222007
-0.173667
-0.141441
-0.149497
-0.101157
-0.101157
0.027749
0.148598
0.237222
0.285561
0.229165
0.213052
0.180825
0.116372
0.116372
0.132485
0.164712
0.059975
0.019692
0.027749
0.019692
0.019692
0.003579
0.019692
0.019692
-0.028648
-0.012534
-0.012534
-0.020591
-0.012534
-0.044761
-0.020591
-0.028648
-0.004478
-0.012534
-0.036704
-0.036704
-0.020591
-0.028648
-0.036704
-0.020591
-0.036704
-0.012534
-0.036704
-0.044761
-0.020591
-0.012534
-0.020591
-0.020591
-0.044761
-0.036704
-0.012534
0.011636
0.196938
0.293618
0.382241
0.382241
0.366128
0.374184
0.350014
0.341958
0.350014
0.325845
0.180825
0.156655
0.132485
0.084145
0.076089
0.059975
0.076089
0.043862
0.019692
-0.004478
-0.036704
-0.036704
-0.012534
-0.044761
-0.020591
0.011636
-0.020591
-0.012534
-0.020591
-0.052818
-0.012534
-0.012534
0.003579
-0.044761
-0.028648
-0.020591
-0.020591
0.019692
-0.020591
-0.012534
0.003579
0.003579
-0.020591
-0.004478
0.003579
0.011636
0.019692
0.043862
0.011636
0.003579
0.027749
-0.004478
0.019692
0.003579
-0.020591
0.011636
0.011636
0.003579
-0.012534
-0.012534
-0.004478
0.043862
0.011636
-0.020591
-0.213950
-0.318687
-0.431480
-0.423423
-0.375083
-0.391196
-0.407310
-0.375083
-0.375083
-0.294517
-0.238120
-0.230064
-0.141441
-0.125327
-0.085044
-0.133384
-0.052818
-0.052818
-0.020591
-0.036704
-0.004478
-0.028648
-0.012534
-0.012534
-0.020591
0.011636
0.003579
-0.012534
-0.012534
-0.044761
-0.004478
-0.012534
-0.020591
-0.036704
0.019692
-0.028648
-0.012534
-0.020591
-0.036704
0.011636
-0.004478
0.172768
0.188882
0.204995
0.213052
0.180825
0.164712
0.148598
0.092202
0.051919
0.019692
-0.020591
-0.020591
-0.012534
0.003579
0.003579
-0.028648
-0.012534
-0.036704
-0.028648
-0.020591
-0.028648
-0.036704
0.003579
0.124429
0.293618
0.382241
0.406411
0.350014
0.398354
0.382241
0.350014
0.325845
0.261391
0.213052
0.148598
0.116372
0.092202
0.108315
0.068032
0.068032
0.003579
0.019692
-0.036704
-0.020591
-0.044761
-0.052818
-0.036704
-0.012534
-0.004478
-0.012534
-0.028648
-0.028648
-0.036704
-0.028648
-0.020591
-0.060874
-0.020591
0.003579
-0.004478
-0.020591
-0.020591
-0.020591
-0.036704
-0.012534
-0.020591
-0.004478
0.019692
-0.020591
0.003579
0.011636
0.027749
0.011636
-0.012534
0.011636
0.027749
0.035805
0.027749
0.019692
0.035805
0.003579
-0.004478
0.027749
0.003579
-0.020591
0.035805
-0.004478
-0.028648
-0.246177
-0.334800
-0.431480
-0.439536
-0.399253
-0.407310
-0.415366
-0.423423
-0.342857
-0.302573
-0.238120
-0.173667
-0.133384
-0.133384
-0.085044
-0.125327
-0.052818
-0.044761
-0.028648
-0.028648
-0.020591
0.027749
0.019692
0.043862
-0.012534
0.003579
0.003579
-0.028648
-0.028648
0.011636
-0.020591
0.011636
0.019692
-0.012534
0.003579
0.011636
-0.012534
-0.012534
-0.020591
-0.028648
-0.028648
-0.012534
-0.004478
-0.020591
-0.020591
0.011636
0.019692
-0.020591
-0.012534
-0.068931
-0.028648
-0.044761
0.003579
-0.028648
-0.036704
-0.004478
-0.044761
-0.060874
-0.036704
-0.028648
0.003579
-0.012534
-0.052818
0.011636
0.204995
0.333901
0.358071
0.398354
0.358071
0.341958
0.486977
0.551430
0.567544
0.511147
0.430581
0.390298
0.285561
0.261391
0.213052
0.164712
0.116372
0.043862
0.011636
-0.012534
0.011636
0.011636
0.003579
-0.036704
-0.020591
-0.060874
-0.028648
-0.052818
-0.044761
-0.036704
-0.020591
-0.044761
-0.036704
-0.012534
-0.028648
-0.012534
-0.020591
0.019692
-0.004478
0.019692
-0.004478
0.027749
0.003579
-0.004478
-0.004478
0.019692
0.035805
-0.012534
-0.004478
0.019692
0.035805
0.051919
0.011636
0.051919
0.003579
0.003579
0.011636
0.027749
-0.004478
-0.004478
-0.004478
0.003579
-0.012534
-0.076987
-0.278403
-0.383140
-0.431480
-0.407310
-0.415366
-0.375083
-0.407310
-0.383140
-0.342857
-0.238120
-0.222007
-0.173667
-0.149497
-0.101157
-0.117271
-0.076987
-0.076987
-0.044761
-0.036704
-0.036704
0.003579
-0.012534
0.035805
0.003579
0.019692
0.011636
0.027749
-0.036704
0.003579
-0.012534
-0.004478
-0.020591
-0.028648
0.027749
-0.028648
-0.020591
0.019692
0.011636
0.003579
-0.012534
-0.028648
0.003579
-0.004478
-0.036704
-0.044761
-0.020591
-0.004478
-0.036704
-0.052818
-0.020591
-0.020591
-0.020591
-0.044761
-0.012534
-0.020591
-0.004478
-0.036704
-0.036704
-0.012534
-0.044761
-0.052818
-0.020591
-0.020591
0.043862
0.204995
0.333901
0.438638
0.382241
0.406411
0.366128
0.382241
0.382241
0.333901
0.253335
0.180825
0.124429
0.140542
0.100259
0.051919
0.059975
0.043862
-0.020591
-0.028648
-0.036704
-0.060874
-0.044761
0.003579
-0.052818
-0.044761
-0.036704
-0.044761
-0.060874
-0.028648
-0.028648
-0.028648
0.027749
0.180825
0.221108
0.221108
0.188882
0.196938
0.172768
0.148598
0.092202
0.116372
0.059975
0.059975
0.043862
0.011636
0.027749
0.027749
0.027749
-0.020591
0.003579
0.019692
0.043862
-0.004478
-0.004478
0.027749
-0.004478
-0.012534
0.019692
0.003579
0.027749
-0.004478
0.011636
-0.012534
-0.052818
-0.254234
-0.350913
-0.431480
-0.471763
-0.431480
-0.415366
-0.407310
-0.350913
-0.326743
-0.262290
-0.222007
-0.165611
-0.133384
-0.109214
-0.109214
-0.093101
-0.052818
-0.020591
-0.004478
0.027749
0.019692
0.003579
0.019692
0.027749
0.003579
0.027749
0.027749
0.027749
0.003579
0.003579
0.003579
-0.020591
-0.012534
-0.028648
-0.044761
-0.060874
-0.004478
-0.012534
-0.020591
-0.020591
0.019692
-0.020591
-0.036704
-0.044761
-0.028648
-0.036704
-0.028648
-0.012534
-0.020591
-0.028648
-0.012534
-0.028648
-0.036704
-0.004478
-0.044761
-0.036704
-0.020591
-0.028648
-0.012534
-0.028648
-0.004478
-0.028648
-0.020591
0.068032
0.237222
0.358071
0.406411
0.406411
0.341958
0.382241
0.333901
0.374184
0.317788
0.237222
0.204995
0.140542
0.108315
0.124429
0.092202
0.068032
0.068032
0.027749
0.003579
-0.004478
-0.036704
-0.020591
-0.036704
-0.036704
-0.020591
-0.028648
-0.052818
-0.036704
-0.004478
-0.036704
-0.044761
-0.012534
-0.028648
0.011636
-0.012534
-0.012534
-0.004478
-0.036704
-0.028648
-0.036704
-0.004478
0.027749
0.011636
-0.012534
0.019692
0.011636
-0.004478
-0.012534
0.003579
0.011636
-0.004478
0.027749
0.003579
-0.020591
-0.004478
-0.012534
-0.004478
-0.012534
-0.020591
0.059975
0.221108
0.269448
0.253335
0.124429
-0.093101
-0.205894
-0.278403
-0.278403
-0.302573
-0.294517
-0.350913
-0.350913
-0.318687
-0.213950
-0.213950
-0.173667
-0.125327
-0.133384
-0.141441
-0.085044
-0.044761
-0.068931
-0.012534
-0.012534
0.011636
0.003579
-0.004478
0.019692
0.019692
-0.004478
-0.020591
0.003579
-0.012534
-0.012534
0.003579
-0.004478
0.043862
-0.004478
-0.004478
-0.020591
-0.020591
-0.004478
0.011636
-0.004478
0.003579
-0.036704
-0.044761
-0.028648
-0.004478
-0.036704
-0.036704
-0.028648
-0.052818
-0.044761
-0.044761
-0.012534
-0.028648
-0.052818
-0.004478
-0.012534
-0.052818
0.003579
-0.036704
-0.060874
-0.028648
-0.044761
-0.020591
0.084145
0.237222
0.390298
0.414468
0.382241
0.358071
0.350014
0.366128
0.341958
0.350014
0.237222
0.172768
0.140542
0.124429
0.092202
0.092202
0.108315
0.068032
0.051919
-0.020591
-0.004478
-0.028648
-0.012534
-0.044761
-0.020591
-0.036704
-0.004478
-0.012534
-0.036704
-0.012534
-0.036704
-0.012534
-0.052818
-0.020591
-0.012534
-0.036704
-0.020591
-0.028648
0.003579
0.003579
-0.020591
0.011636
0.019692
-0.004478
0.011636
-0.012534
-0.012534
0.019692
-0.012534
0.003579
0.003579
-0.012534
-0.028648
-0.004478
-0.012534
0.011636
-0.028648
0.003579
-0.004478
-0.020591
0.011636
0.011636
-0.012534
-0.028648
-0.117271
-0.286460
-0.415366
-0.487876
-0.439536
-0.423423
-0.463706
-0.391196
-0.399253
-0.342857
-0.254234
-0.205894
-0.181724
-0.125327
-0.141441
-0.117271
-0.117271
-0.093101
-0.044761
0.035805
0.204995
0.213052
0.213052
0.221108
0.204995
0.148598
0.124429
0.116372
0.051919
0.076089
0.051919
-0.012534
-0.004478
-0.004478
0.035805
0.035805
-0.004478
-0.028648
-0.012534
-0.020591
-0.028648
0.003579
-0.036704
-0.060874
-0.052818
-0.020591
-0.052818
-0.028648
-0.028648
-0.036704
-0.028648
-0.028648
-0.004478
-0.036704
-0.028648
-0.028648
-0.036704
-0.020591
-0.028648
-0.028648
-0.004478
-0.020591
-0.060874
-0.028648
0.100259
0.269448
0.358071
0.414468
0.366128
0.374184
0.358071
0.350014
0.341958
0.293618
0.188882
0.188882
0.132485
0.100259
0.108315
0.059975
0.068032
0.027749
0.011636
0.011636
-0.028648
-0.036704
-0.068931
-0.028648
-0.036704
-0.028648
-0.020591
-0.052818
-0.012534
-0.044761
-0.068931
-0.028648
-0.052818
-0.012534
-0.036704
-0.020591
-0.012534
-0.060874
-0.020591
-0.036704
-0.012534
-0.004478
-0.012534
-0.012534
0.027749
-0.012534
0.019692
0.035805
0.011636
0.019692
-0.020591
0.011636
-0.012534
0.011636
0.003579
0.027749
0.068032
-0.004478
-0.012534
-0.020591
0.027749
-0.004478
-0.012534
-0.036704
-0.157554
-0.294517
-0.447593
-0.423423
-0.439536
-0.407310
-0.391196
-0.367027
-0.391196
-0.310630
-0.238120
-0.197837
-0.165611
-0.141441
-0.149497
-0.076987
-0.093101
-0.052818
-0.044761
-0.036704
0.003579
-0.012534
0.027749
0.003579
-0.004478
-0.004478
0.019692
-0.004478
-0.012534
-0.012534
-0.028648
0.027749
0.011636
-0.044761
-0.012534
-0.012534
-0.028648
-0.044761
-0.036704
-0.036704
0.011636
-0.036704
-0.028648
-0.052818
-0.036704
-0.028648
-0.060874
-0.020591
-0.028648
0.084145
0.164712
0.221108
0.213052
0.164712
0.188882
0.108315
0.059975
0.027749
0.051919
0.011636
-0.004478
-0.028648
-0.036704
0.011636
0.204995
0.350014
0.430581
0.398354
0.358071
0.382241
0.350014
0.366128
0.301675
0.301675
0.277505
0.164712
0.116372
0.084145
0.076089
0.051919
0.068032
0.027749
0.003579
0.003579
-0.020591
-0.060874
-0.020591
-0.036704
-0.020591
-0.020591
-0.044761
-0.028648
0.011636
-0.012534
-0.020591
-0.036704
-0.028648
-0.044761
-0.012534
0.003579
-0.028648
-0.036704
0.003579
-0.036704
-0.036704
0.011636
-0.004478
0.027749
-0.028648
-0.004478
-0.020591
-0.012534
0.027749
-0.020591
0.011636
-0.020591
-0.012534
0.003579
0.003579
-0.004478
0.027749
0.003579
-0.012534
0.011636
-0.004478
-0.012534
0.011636
-0.028648
-0.197837
-0.342857
-0.415366
-0.455650
-0.383140
-0.399253
-0.375083
-0.415366
-0.350913
-0.302573
-0.230064
-0.189780
-0.149497
-0.157554
-0.149497
-0.076987
-0.068931
-0.028648
-0.012534
-0.028648
-0.004478
-0.020591
-0.044761
0.011636
-0.004478
-0.004478
0.011636
-0.012534
0.011636
-0.012534
-0.012534
-0.020591
-0.028648
-0.028648
0.011636
-0.020591
-0.028648
-0.004478
-0.020591
0.003579
-0.004478
-0.028648
-0.012534
-0.020591
-0.036704
-0.004478
-0.036704
-0.020591
-0.012534
-0.028648
-0.028648
-0.004478
-0.004478
-0.012534
-0.044761
-0.012534
-0.028648
0.011636
-0.028648
0.003579
-0.036704
-0.052818
-0.052818
-0.020591
0.164712
0.317788
0.390298
0.390298
0.358071
0.341958
0.358071
0.333901
0.341958
0.269448
0.293618
0.333901
0.366128
0.333901
0.285561
0.317788
0.245278
0.204995
0.092202
0.068032
0.027749
-0.020591
-0.004478
-0.004478
-0.012534
0.011636
-0.028648
-0.004478
-0.028648
-0.044761
-0.012534
-0.012534
-0.036704
-0.004478
-0.012534
0.003579
-0.036704
-0.012534
0.043862
-0.020591
-0.036704
-0.028648
-0.028648
0.003579
0.003579
0.003579
-0.012534
0.011636
0.003579
0.019692
0.003579
0.011636
0.043862
0.003579
0.035805
0.027749
0.011636
0.019692
0.019692
-0.004478
0.011636
0.003579
0.003579
-0.036704
-0.222007
-0.334800
-0.439536
-0.407310
-0.407310
-0.407310
-0.391196
-0.391196
-0.399253
-0.302573
-0.246177
-0.189780
-0.141441
-0.125327
-0.117271
-0.085044
-0.044761
-0.036704
-0.004478
-0.004478
-0.012534
-0.012534
0.011636
0.019692
0.011636
-0.004478
-0.004478
-0.012534
0.003579
0.043862
-0.028648
0.003579
-0.012534
-0.028648
0.011636
-0.012534
-0.028648
-0.012534
-0.028648
-0.004478
-0.028648
-0.036704
0.003579
0.003579
-0.028648
-0.020591
-0.044761
-0.036704
-0.028648
-0.020591
-0.036704
-0.052818
-0.036704
-0.052818
-0.036704
-0.044761
-0.052818
-0.036704
-0.036704
-0.044761
-0.028648
-0.068931
-0.020591
-0.012534
0.188882
0.309731
0.398354
0.382241
0.350014
0.341958
0.374184
0.333901
0.333901
0.261391
0.196938
0.148598
0.156655
0.116372
0.068032
0.059975
0.043862
0.035805
0.011636
-0.004478
-0.044761
-0.036704
-0.052818
-0.004478
-0.044761
-0.052818
-0.028648
-0.004478
-0.036704
-0.076987
-0.044761
-0.020591
-0.028648
-0.036704
-0.004478
-0.060874
-0.012534
0.011636
0.059975
0.204995
0.237222
0.229165
0.245278
0.204995
0.204995
0.116372
0.148598
0.116372
0.076089
0.051919
0.019692
-0.004478
0.043862
0.019692
-0.020591
0.011636
-0.028648
-0.004478
0.019692
-0.020591
-0.028648
-0.020591
0.003579
-0.052818
-0.238120
-0.342857
-0.439536
-0.447593
-0.383140
-0.391196
-0.391196
-0.399253
-0.350913
-0.286460
-0.254234
-0.213950
-0.165611
-0.076987
-0.109214
-0.076987
-0.060874
-0.044761
-0.028648
-0.020591
-0.020591
0.011636
-0.004478
-0.012534
-0.020591
-0.020591
-0.004478
-0.012534
0.019692
-0.004478
-0.020591
-0.004478
-0.020591
-0.012534
0.019692
-0.004478
0.027749
-0.012534
-0.012534
-0.044761
-0.044761
-0.004478
-0.028648
-0.012534
-0.036704
-0.028648
0.003579
-0.020591
-0.004478
0.003579
-0.020591
-0.044761
-0.044761
-0.052818
-0.060874
-0.044761
-0.020591
-0.028648
-0.036704
-0.036704
-0.028648
-0.012534
-0.020591
0.035805
0.196938
0.333901
0.390298
0.350014
0.406411
0.382241
0.374184
0.358071
0.333901
0.237222
0.196938
0.148598
0.140542
0.084145
0.084145
0.068032
0.027749
0.019692
-0.028648
-0.012534
-0.020591
-0.028648
-0.036704
-0.060874
-0.028648
-0.036704
-0.028648
-0.012534
-0.036704
-0.004478
-0.012534
-0.020591
-0.020591
-0.036704
0.003579
-0.028648
-0.012534
0.011636
0.011636
-0.028648
-0.028648
-0.020591
-0.012534
-0.004478
-0.012534
-0.020591
-0.004478
-0.012534
0.019692
-0.004478
0.027749
-0.012534
-0.004478
-0.028648
-0.012534
-0.012534
0.011636
-0.020591
-0.036704
0.011636
-0.020591
0.059975
0.164712
0.148598
-0.004478
-0.189780
-0.246177
-0.270347
-0.310630
-0.342857
-0.342857
-0.358970
-0.318687
-0.278403
-0.222007
-0.189780
-0.125327
-0.149497
-0.109214
-0.076987
-0.093101
-0.052818
-0.036704
-0.028648
-0.020591
-0.036704
-0.012534
0.051919
-0.012534
0.019692
-0.012534
0.003579
-0.004478
-0.004478
0.011636
-0.028648
0.027749
0.003579
-0.004478
-0.012534
-0.028648
-0.012534
-0.036704
0.003579
-0.044761
-0.020591
-0.020591
-0.020591
-0.012534
-0.036704
0.003579
-0.028648
-0.020591
-0.028648
-0.012534
-0.020591
-0.044761
-0.020591
-0.044761
-0.004478
-0.060874
-0.028648
-0.060874
-0.028648
-0.012534
-0.052818
-0.036704
0.051919
0.245278
0.358071
0.390298
0.390298
0.366128
0.341958
0.358071
0.341958
0.301675
0.237222
0.188882
0.140542
0.140542
0.059975
0.100259
0.011636
0.019692
0.003579
-0.012534
-0.020591
-0.028648
0.011636
-0.036704
-0.012534
-0.044761
-0.036704
-0.020591
-0.020591
-0.036704
-0.012534
-0.036704
-0.020591
-0.036704
-0.020591
0.019692
-0.036704
-0.012534
-0.012534
0.003579
-0.004478
0.003579
0.011636
-0.004478
-0.004478
0.027749
0.003579
0.003579
-0.012534
0.019692
-0.012534
0.027749
0.027749
0.003579
-0.020591
-0.012534
0.003579
0.011636
0.003579
-0.020591
0.027749
0.003579
0.027749
-0.012534
-0.093101
-0.286460
-0.407310
-0.471763
-0.423423
-0.391196
-0.415366
-0.415366
-0.399253
-0.342857
-0.270347
-0.197837
-0.189780
-0.173667
-0.141441
-0.157554
-0.076987
-0.085044
-0.068931
-0.036704
-0.012534
-0.004478
-0.036704
-0.004478
-0.036704
-0.052818
-0.028648
-0.020591
0.100259
0.180825
0.221108
0.188882
0.221108
0.148598
0.124429
0.084145
0.059975
0.043862
0.035805
-0.012534
-0.012534
0.027749
-0.028648
-0.036704
-0.036704
0.003579
-0.036704
-0.028648
-0.044761
-0.068931
-0.060874
-0.044761
-0.044761
-0.020591
-0.044761
0.011636
-0.060874
-0.028648
-0.020591
-0.052818
-0.020591
-0.044761
-0.028648
-0.044761
0.076089
0.221108
0.374184
0.390298
0.398354
0.390298
0.390298
0.366128
0.341958
0.317788
0.221108
0.180825
0.148598
0.100259
0.092202
0.084145
0.035805
0.035805
0.003579
-0.028648
-0.012534
0.011636
-0.052818
-0.036704
-0.044761
-0.012534
-0.060874
-0.036704
-0.044761
-0.060874
-0.036704
-0.028648
-0.028648
-0.036704
-0.020591
-0.036704
-0.004478
-0.044761
-0.020591
-0.028648
-0.012534
0.003579
-0.004478
-0.028648
0.011636
0.003579
-0.028648
-0.004478
-0.004478
0.003579
-0.028648
0.003579
-0.028648
-0.036704
-0.012534
-0.036704
-0.036704
-0.004478
0.019692
-0.004478
-0.020591
-0.004478
-0.004478
-0.044761
-0.125327
-0.286460
-0.399253
-0.423423
-0.407310
-0.431480
-0.391196
-0.431480
-0.407310
-0.358970
-0.270347
-0.246177
-0.173667
-0.141441
-0.093101
-0.117271
-0.076987
-0.076987
-0.076987
-0.044761
-0.020591
-0.020591
-0.020591
-0.028648
0.003579
0.003579
-0.028648
0.011636
-0.044761
0.003579
-0.012534
-0.036704
-0.020591
-0.012534
-0.012534
-0.044761
-0.028648
-0.004478
-0.036704
-0.044761
-0.068931
-0.052818
-0.044761
-0.044761
-0.044761
-0.020591
-0.020591
-0.044761
-0.068931
-0.093101
-0.052818
-0.036704
-0.052818
0.043862
0.148598
0.180825
0.188882
0.164712
0.132485
0.035805
0.035805
-0.020591
0.003579
-0.012534
0.108315
0.269448
0.350014
0.398354
0.374184
0.358071
0.366128
0.366128
0.358071
0.285561
0.229165
0.196938
0.140542
0.092202
0.084145
0.059975
0.068032
0.059975
-0.036704
0.011636
-0.036704
-0.028648
-0.020591
-0.028648
-0.052818
-0.036704
-0.036704
-0.036704
0.019692
-0.004478
-0.028648
0.011636
-0.028648
-0.052818
-0.028648
-0.044761
-0.012534
-0.012534
-0.012534
-0.028648
-0.012534
-0.020591
-0.012534
-0.012534
0.011636
-0.012534
0.003579
-0.036704
0.003579
0.027749
0.011636
0.003579
-0.004478
-0.020591
0.011636
-0.004478
0.003579
-0.028648
-0.004478
-0.012534
-0.012534
0.003579
-0.004478
-0.020591
-0.125327
-0.310630
-0.375083
-0.439536
-0.407310
-0.375083
-0.399253
-0.399253
-0.358970
-0.334800
-0.230064
-0.213950
-0.165611
-0.149497
-0.125327
-0.117271
-0.085044
-0.060874
-0.068931
-0.020591
-0.020591
-0.012534
0.011636
0.003579
-0.004478
-0.004478
-0.012534
-0.020591
-0.020591
-0.004478
-0.020591
-0.012534
0.003579
0.011636
-0.020591
0.019692
-0.020591
-0.012534
-0.012534
-0.012534
-0.044761
-0.044761
-0.020591
0.011636
-0.012534
-0.028648
-0.004478
-0.036704
-0.028648
-0.044761
-0.052818
-0.044761
-0.068931
-0.036704
-0.012534
-0.020591
-0.012534
-0.004478
-0.028648
-0.028648
-0.044761
-0.036704
-0.020591
-0.004478
0.124429
0.277505
0.390298
0.382241
0.374184
0.333901
0.374184
0.333901
0.341958
0.261391
0.196938
0.132485
0.140542
0.068032
0.076089
0.035805
0.019692
0.043862
0.204995
0.221108
0.221108
0.188882
0.148598
0.092202
0.068032
0.035805
0.035805
0.003579
-0.020591
0.003579
-0.020591
-0.044761
-0.036704
-0.012534
0.003579
-0.060874
0.003579
-0.004478
-0.028648
-0.020591
0.011636
-0.020591
-0.012534
0.011636
0.003579
0.019692
0.027749
0.003579
0.011636
0.003579
0.019692
-0.020591
0.003579
0.019692
0.027749
-0.028648
0.019692
0.003579
0.035805
0.003579
0.043862
-0.004478
-0.044761
-0.028648
-0.157554
-0.318687
-0.391196
-0.431480
-0.391196
-0.407310
-0.391196
-0.407310
-0.383140
-0.310630
-0.238120
-0.222007
-0.181724
-0.085044
-0.109214
-0.109214
-0.093101
-0.028648
-0.044761
-0.028648
-0.012534
-0.004478
0.051919
-0.004478
0.011636
-0.012534
-0.004478
0.003579
-0.028648
-0.004478
0.003579
-0.004478
-0.004478
-0.012534
-0.004478
-0.020591
-0.036704
-0.020591
-0.020591
-0.004478
-0.004478
-0.020591
-0.020591
-0.020591
-0.028648
-0.044761
-0.044761
-0.004478
-0.020591
-0.036704
-0.036704
-0.036704
-0.020591
-0.044761
-0.012534
