2.404764
3.500467
1.881083
0.930399
0.430887
0.205301
0.132792
0.108622
0.156962
0.197245
0.156962
0.132792
0.084452
0.076395
0.068339
0.036112
0.003885
0.036112
0.028055
0.011942
0.011942
0.011942
-0.020284
0.011942
-0.012228
-0.028341
-0.012228
0.003885
0.011942
-0.004171
-0.004171
0.011942
0.028055
-0.004171
-0.092794
-0.326437
-0.560079
-0.688986
-0.688986
-0.640646
-0.616476
-0.592306
-0.576193
-0.519796
-0.527853
-0.543966
-0.503683
-0.519796
-0.471456
-0.455343
-0.366720
-0.278097
-0.261984
-0.261984
-0.221701
-0.213644
-0.205587
-0.173361
-0.157247
-0.149191
-0.133077
-0.116964
-0.125021
-0.092794
-0.116964
-0.092794
-0.108908
-0.157247
-0.133077
-0.181417
-0.173361
-0.197531
-0.213644
-0.229757
-0.286154
-0.237814
-0.261984
-0.261984
-0.294210
-0.270040
-0.286154
-0.294210
-0.261984
-0.294210
-0.237814
-0.237814
-0.237814
-0.213644
-0.213644
-0.221701
-0.229757
-0.149191
-0.125021
-0.100851
-0.133077
-0.116964
-0.116964
-0.108908
-0.092794
-0.076681
-0.052511
0.197245
0.398661
0.430887
0.455057
0.463114
0.495341
0.455057
0.422831
0.422831
0.414774
0.430887
0.398661
0.334208
0.253641
0.221415
0.173075
0.156962
0.165018
0.108622
0.108622
0.108622
0.068339
0.028055
0.052225
0.028055
-0.020284
-0.028341
-0.028341
-0.044454
-0.012228
-0.028341
-0.028341
-0.028341
-0.028341
-0.004171
-0.028341
-0.028341
-0.036398
0.011942
-0.020284
-0.012228
-0.036398
-0.028341
-0.020284
-0.020284
-0.020284
-0.004171
-0.004171
-0.028341
-0.028341
0.003885
-0.052511
-0.028341
-0.036398
-0.028341
-0.012228
-0.012228
-0.004171
-0.012228
0.084452
0.189188
0.229471
0.261698
0.237528
0.165018
0.181132
0.084452
-0.157247
-0.286154
-0.358663
-0.439230
-0.415060
-0.407003
-0.390890
-0.423117
-0.398947
-0.374777
-0.253927
-0.189474
-0.165304
-0.149191
-0.100851
-0.108908
-0.076681
-0.052511
-0.044454
-0.012228
-0.036398
0.011942
-0.020284
-0.028341
0.011942
-0.012228
-0.028341
-0.036398
-0.044454
-0.004171
-0.028341
-0.028341
-0.052511
-0.060568
-0.052511
-0.076681
-0.060568
-0.084738
-0.084738
-0.108908
-0.100851
-0.084738
-0.052511
-0.076681
-0.076681
-0.036398
-0.068624
-0.068624
-0.125021
-0.092794
-0.092794
-0.052511
-0.068624
-0.084738
-0.068624
-0.084738
-0.076681
-0.060568
-0.044454
-0.076681
-0.052511
-0.020284
-0.020284
0.011942
0.092508
0.253641
0.318094
0.358378
0.374491
0.366434
0.366434
0.390604
0.342264
0.285868
0.245585
0.197245
0.173075
0.148905
0.084452
0.044169
0.036112
0.052225
0.036112
-0.004171
0.011942
-0.020284
-0.052511
-0.028341
-0.036398
-0.020284
-0.012228
-0.004171
-0.012228
-0.004171
-0.012228
-0.028341
-0.028341
-0.012228
0.052225
-0.012228
0.003885
-0.012228
-0.036398
-0.020284
-0.004171
-0.020284
0.028055
-0.004171
0.003885
0.003885
0.019999
-0.004171
0.003885
0.003885
-0.004171
-0.012228
0.003885
-0.028341
0.011942
0.028055
0.003885
-0.012228
-0.028341
-0.012228
-0.028341
0.011942
0.028055
0.011942
-0.068624
-0.221701
-0.326437
-0.366720
-0.366720
-0.398947
-0.407003
-0.439230
-0.398947
-0.326437
-0.253927
-0.221701
-0.197531
-0.173361
-0.133077
-0.100851
-0.092794
-0.068624
-0.052511
-0.044454
0.060282
0.173075
0.229471
0.237528
0.229471
0.197245
0.213358
0.156962
0.140848
0.084452
0.100565
0.060282
0.028055
0.003885
0.019999
-0.028341
-0.012228
-0.028341
-0.044454
-0.052511
-0.036398
-0.052511
-0.060568
-0.068624
-0.036398
-0.068624
-0.044454
-0.052511
-0.084738
-0.052511
-0.068624
-0.036398
-0.092794
-0.076681
-0.092794
-0.068624
-0.052511
-0.068624
-0.052511
-0.036398
-0.044454
-0.036398
-0.028341
-0.044454
-0.028341
0.181132
0.293924
0.350321
0.342264
0.382548
0.374491
0.398661
0.342264
0.310038
0.221415
0.181132
0.140848
0.132792
0.092508
0.060282
0.052225
0.028055
0.019999
0.011942
-0.020284
0.028055
-0.036398
-0.028341
-0.044454
-0.028341
-0.028341
-0.012228
-0.020284
-0.012228
-0.004171
-0.004171
-0.020284
-0.004171
-0.004171
0.019999
-0.012228
0.019999
-0.020284
-0.020284
-0.012228
0.019999
0.011942
-0.020284
0.019999
0.019999
0.003885
0.036112
-0.004171
-0.012228
-0.012228
0.003885
-0.020284
0.011942
-0.012228
-0.020284
0.019999
0.019999
-0.004171
0.003885
0.028055
0.003885
0.052225
0.011942
-0.028341
-0.197531
-0.286154
-0.358663
-0.382833
-0.390890
-0.423117
-0.382833
-0.366720
-0.342550
-0.213644
-0.205587
-0.165304
-0.149191
-0.092794
-0.084738
-0.076681
-0.068624
-0.036398
-0.044454
-0.004171
-0.004171
-0.036398
0.036112
-0.020284
0.003885
-0.028341
0.003885
0.003885
-0.012228
-0.036398
-0.004171
0.011942
-0.044454
-0.012228
-0.052511
-0.028341
-0.052511
-0.052511
-0.052511
-0.084738
-0.052511
-0.060568
0.003885
0.132792
0.197245
0.213358
0.173075
0.148905
0.140848
0.140848
0.060282
0.044169
0.019999
-0.020284
-0.036398
-0.044454
-0.044454
-0.036398
-0.060568
-0.044454
-0.020284
-0.036398
-0.044454
-0.012228
0.148905
0.277811
0.318094
0.366434
0.366434
0.382548
0.382548
0.358378
0.269755
0.237528
0.165018
0.124735
0.100565
0.084452
0.044169
0.076395
0.036112
-0.004171
0.019999
-0.028341
-0.036398
-0.036398
-0.004171
-0.012228
-0.052511
-0.028341
-0.028341
-0.012228
-0.012228
-0.028341
-0.020284
-0.044454
-0.028341
-0.052511
0.003885
-0.028341
-0.020284
-0.028341
-0.004171
-0.012228
-0.004171
0.003885
0.028055
-0.028341
-0.004171
-0.004171
-0.020284
0.003885
0.019999
0.028055
0.028055
0.011942
0.019999
-0.004171
-0.012228
0.003885
0.011942
0.019999
0.019999
0.003885
0.019999
0.011942
0.003885
-0.012228
-0.173361
-0.261984
-0.342550
-0.366720
-0.407003
-0.382833
-0.398947
-0.374777
-0.342550
-0.245870
-0.213644
-0.173361
-0.133077
-0.092794
-0.100851
-0.076681
-0.036398
0.003885
-0.004171
0.019999
0.044169
-0.004171
0.028055
0.028055
0.003885
0.011942
0.003885
-0.004171
0.011942
0.011942
-0.020284
-0.012228
-0.012228
-0.044454
-0.004171
0.003885
-0.020284
-0.020284
0.003885
-0.028341
-0.036398
-0.076681
-0.012228
-0.020284
-0.028341
-0.036398
-0.052511
-0.052511
-0.060568
-0.060568
-0.068624
-0.044454
-0.044454
-0.036398
-0.044454
-0.060568
-0.036398
-0.044454
-0.036398
-0.036398
-0.060568
-0.060568
-0.052511
-0.044454
0.100565
0.269755
0.310038
0.358378
0.318094
0.358378
0.374491
0.301981
0.382548
0.438944
0.430887
0.382548
0.342264
0.285868
0.253641
0.213358
0.189188
0.092508
0.092508
0.044169
0.036112
0.011942
0.011942
-0.028341
-0.004171
-0.020284
-0.004171
-0.028341
-0.020284
-0.020284
-0.004171
-0.012228
-0.028341
-0.028341
-0.020284
-0.012228
-0.028341
-0.044454
-0.020284
-0.028341
-0.036398
-0.012228
-0.012228
-0.036398
-0.012228
-0.020284
-0.012228
0.019999
0.003885
-0.004171
-0.028341
0.019999
-0.012228
0.019999
0.052225
0.003885
-0.012228
-0.004171
0.011942
0.011942
0.011942
0.003885
-0.004171
-0.020284
-0.125021
-0.278097
-0.342550
-0.358663
-0.374777
-0.382833
-0.366720
-0.342550
-0.294210
-0.253927
-0.181417
-0.165304
-0.133077
-0.084738
-0.044454
-0.052511
-0.068624
-0.004171
0.003885
-0.004171
0.011942
-0.004171
0.019999
0.036112
0.019999
0.036112
-0.012228
0.044169
0.003885
0.011942
0.003885
-0.028341
-0.012228
-0.012228
0.003885
-0.020284
-0.020284
-0.012228
-0.036398
-0.012228
-0.028341
-0.012228
-0.028341
-0.020284
-0.052511
-0.028341
-0.028341
-0.068624
-0.060568
-0.036398
-0.012228
-0.020284
-0.052511
-0.028341
-0.044454
-0.012228
-0.012228
-0.060568
-0.036398
-0.052511
-0.028341
-0.044454
-0.036398
-0.012228
0.100565
0.277811
0.326151
0.334208
0.334208
0.350321
0.422831
0.350321
0.293924
0.237528
0.181132
0.132792
0.092508
0.060282
0.076395
0.044169
0.011942
0.028055
-0.036398
-0.028341
-0.060568
-0.052511
-0.052511
-0.020284
-0.052511
-0.020284
-0.028341
-0.012228
-0.004171
-0.044454
-0.012228
-0.052511
-0.060568
0.068339
0.165018
0.205301
0.229471
0.245585
0.197245
0.213358
0.173075
0.148905
0.140848
0.108622
0.084452
0.052225
0.011942
-0.012228
-0.020284
0.019999
-0.020284
0.019999
-0.012228
-0.012228
0.003885
-0.012228
0.003885
-0.028341
-0.004171
-0.012228
0.003885
-0.012228
-0.020284
0.003885
-0.173361
-0.302267
-0.326437
-0.366720
-0.342550
-0.382833
-0.382833
-0.374777
-0.310324
-0.245870
-0.165304
-0.165304
-0.149191
-0.076681
-0.084738
-0.052511
-0.028341
-0.020284
0.003885
0.003885
0.003885
0.019999
-0.004171
0.019999
-0.004171
-0.028341
0.019999
-0.004171
-0.004171
0.019999
0.003885
0.011942
-0.004171
-0.012228
-0.020284
-0.028341
-0.020284
-0.020284
-0.020284
-0.004171
-0.020284
-0.060568
-0.052511
-0.020284
-0.028341
-0.028341
-0.060568
-0.004171
-0.028341
-0.020284
-0.044454
-0.044454
-0.028341
-0.028341
-0.020284
-0.052511
-0.044454
-0.028341
-0.036398
-0.052511
-0.036398
-0.044454
-0.052511
-0.020284
0.173075
0.293924
0.334208
0.342264
0.382548
0.358378
0.342264
0.334208
0.269755
0.245585
0.189188
0.140848
0.092508
0.076395
0.068339
0.044169
0.052225
0.028055
-0.004171
0.003885
0.003885
-0.012228
-0.036398
-0.012228
-0.012228
-0.028341
-0.012228
0.003885
-0.020284
-0.020284
-0.004171
-0.036398
-0.028341
0.019999
0.003885
-0.020284
-0.004171
0.028055
0.011942
0.028055
-0.012228
-0.044454
-0.028341
-0.028341
-0.028341
-0.020284
-0.004171
-0.012228
0.011942
-0.028341
-0.012228
-0.012228
0.028055
0.011942
-0.028341
-0.028341
-0.004171
-0.004171
-0.012228
-0.044454
-0.020284
0.060282
0.189188
0.229471
0.100565
-0.052511
-0.141134
-0.213644
-0.205587
-0.213644
-0.229757
-0.237814
-0.213644
-0.157247
-0.116964
-0.157247
-0.092794
-0.068624
-0.084738
-0.052511
-0.044454
0.003885
-0.012228
0.019999
-0.004171
0.003885
0.011942
-0.036398
0.019999
0.003885
-0.012228
-0.012228
-0.012228
-0.012228
-0.012228
-0.004171
0.003885
-0.028341
-0.012228
-0.020284
-0.028341
-0.036398
-0.028341
-0.012228
0.003885
-0.012228
-0.060568
-0.052511
-0.028341
-0.044454
-0.060568
-0.068624
-0.060568
-0.060568
-0.036398
-0.036398
-0.076681
-0.044454
-0.020284
-0.052511
-0.036398
-0.028341
-0.012228
-0.028341
-0.020284
-0.020284
-0.028341
-0.020284
0.132792
0.285868
0.334208
0.358378
0.374491
0.374491
0.374491
0.326151
0.301981
0.277811
0.253641
0.156962
0.108622
0.052225
0.052225
0.052225
0.019999
-0.004171
-0.012228
0.003885
-0.036398
-0.020284
-0.004171
0.019999
-0.012228
0.011942
-0.052511
-0.036398
-0.052511
-0.028341
-0.012228
-0.044454
-0.044454
-0.020284
-0.036398
-0.028341
0.003885
-0.004171
-0.028341
-0.028341
0.003885
0.011942
0.036112
0.036112
0.028055
-0.028341
0.011942
0.011942
-0.012228
0.028055
0.036112
0.003885
0.011942
0.003885
0.011942
0.011942
0.003885
0.003885
0.011942
0.019999
-0.012228
0.003885
-0.012228
-0.028341
-0.165304
-0.310324
-0.374777
-0.398947
-0.398947
-0.398947
-0.382833
-0.334493
-0.342550
-0.237814
-0.189474
-0.149191
-0.133077
-0.092794
-0.084738
-0.092794
-0.052511
-0.028341
-0.028341
-0.036398
0.068339
0.156962
0.229471
0.245585
0.213358
0.205301
0.181132
0.156962
0.132792
0.132792
0.084452
0.100565
0.044169
0.036112
0.028055
0.003885
-0.012228
-0.020284
-0.020284
0.019999
-0.060568
-0.052511
-0.028341
-0.052511
-0.028341
-0.028341
-0.012228
-0.020284
-0.028341
-0.052511
-0.028341
-0.060568
-0.052511
-0.028341
-0.060568
-0.044454
-0.012228
-0.036398
-0.044454
-0.020284
-0.004171
-0.020284
-0.020284
0.019999
0.140848
0.253641
0.350321
0.334208
0.366434
0.374491
0.334208
0.334208
0.277811
0.237528
0.189188
0.108622
0.116678
0.044169
0.076395
0.036112
0.036112
0.036112
0.003885
-0.012228
-0.004171
-0.028341
-0.012228
0.019999
-0.028341
-0.028341
-0.044454
-0.036398
-0.044454
-0.020284
-0.004171
-0.028341
-0.028341
-0.020284
-0.020284
-0.012228
0.003885
-0.004171
-0.044454
-0.004171
0.003885
-0.012228
-0.012228
-0.028341
0.019999
0.019999
0.028055
0.052225
0.028055
-0.004171
-0.004171
0.028055
0.036112
-0.004171
-0.020284
0.011942
0.003885
0.019999
0.011942
0.036112
-0.020284
0.011942
0.003885
-0.004171
-0.165304
-0.318380
-0.350607
-0.358663
-0.342550
-0.398947
-0.382833
-0.334493
-0.294210
-0.221701
-0.157247
-0.157247
-0.068624
-0.125021
-0.100851
-0.036398
-0.076681
-0.028341
-0.012228
-0.004171
-0.004171
0.028055
0.011942
0.019999
0.011942
0.019999
-0.020284
0.011942
0.011942
-0.004171
0.003885
-0.004171
-0.020284
-0.028341
-0.028341
-0.004171
-0.004171
0.003885
-0.036398
-0.044454
-0.036398
-0.036398
-0.012228
-0.052511
-0.044454
-0.036398
-0.068624
-0.036398
-0.044454
-0.052511
0.028055
0.140848
0.189188
0.189188
0.197245
0.173075
0.173075
0.116678
0.100565
0.068339
0.036112
-0.004171
0.011942
0.052225
0.165018
0.285868
0.350321
0.358378
0.342264
0.358378
0.382548
0.334208
0.253641
0.205301
0.197245
0.148905
0.116678
0.076395
0.068339
0.044169
0.003885
-0.020284
0.019999
-0.028341
-0.052511
-0.044454
-0.012228
-0.044454
-0.020284
-0.044454
-0.036398
-0.028341
-0.052511
-0.012228
-0.028341
-0.004171
-0.028341
-0.020284
-0.044454
-0.020284
-0.020284
-0.004171
-0.012228
-0.004171
0.011942
0.019999
-0.012228
-0.012228
0.003885
0.011942
0.019999
0.003885
-0.012228
0.044169
0.019999
0.019999
-0.004171
-0.012228
0.028055
-0.004171
0.003885
0.019999
-0.012228
-0.012228
-0.012228
0.003885
0.044169
-0.052511
-0.173361
-0.302267
-0.350607
-0.326437
-0.390890
-0.415060
-0.366720
-0.342550
-0.253927
-0.221701
-0.197531
-0.100851
-0.125021
-0.076681
-0.084738
-0.028341
-0.020284
-0.028341
-0.004171
-0.012228
0.011942
0.019999
0.028055
0.044169
-0.012228
0.028055
-0.004171
0.011942
0.036112
0.036112
-0.028341
-0.004171
-0.004171
-0.020284
0.011942
-0.004171
-0.012228
-0.012228
-0.044454
0.011942
-0.012228
-0.020284
-0.020284
-0.044454
-0.044454
-0.020284
-0.036398
-0.028341
-0.020284
-0.028341
-0.020284
-0.028341
-0.012228
-0.044454
-0.028341
-0.068624
-0.012228
-0.068624
-0.036398
-0.044454
-0.052511
-0.052511
-0.060568
0.060282
0.165018
0.285868
0.342264
0.326151
0.366434
0.350321
0.342264
0.293924
0.277811
0.213358
0.116678
0.173075
0.261698
0.326151
0.342264
0.269755
0.237528
0.205301
0.140848
0.140848
0.148905
0.068339
0.076395
0.003885
-0.004171
-0.052511
-0.004171
-0.020284
-0.044454
-0.036398
-0.020284
-0.012228
0.019999
-0.012228
-0.004171
-0.028341
-0.012228
-0.036398
-0.028341
-0.004171
-0.012228
-0.028341
-0.020284
0.011942
0.003885
0.019999
-0.012228
0.003885
0.003885
0.011942
0.019999
0.060282
0.011942
0.003885
0.003885
0.003885
0.052225
0.003885
-0.020284
0.019999
-0.004171
0.011942
0.003885
-0.012228
-0.165304
-0.294210
-0.334493
-0.382833
-0.366720
-0.407003
-0.366720
-0.310324
-0.278097
-0.205587
-0.189474
-0.133077
-0.108908
-0.108908
-0.084738
-0.068624
-0.052511
-0.020284
-0.020284
0.003885
0.003885
0.011942
0.019999
0.003885
-0.004171
-0.012228
-0.004171
-0.020284
0.019999
0.003885
0.003885
-0.012228
-0.036398
-0.004171
-0.012228
0.011942
-0.004171
0.028055
-0.004171
-0.020284
-0.052511
-0.028341
-0.044454
-0.028341
-0.044454
-0.044454
-0.020284
-0.052511
-0.004171
-0.020284
-0.004171
-0.020284
-0.052511
-0.020284
-0.028341
-0.028341
-0.028341
-0.028341
-0.028341
-0.044454
-0.044454
-0.036398
-0.036398
0.011942
0.156962
0.301981
0.326151
0.334208
0.382548
0.390604
0.366434
0.293924
0.310038
0.197245
0.156962
0.092508
0.116678
0.044169
0.036112
0.052225
0.019999
0.011942
-0.004171
-0.068624
-0.036398
0.003885
-0.028341
0.003885
-0.044454
-0.028341
-0.036398
-0.060568
-0.036398
-0.020284
-0.028341
-0.028341
-0.020284
-0.036398
-0.028341
-0.044454
-0.044454
-0.028341
-0.012228
0.019999
0.173075
0.261698
0.245585
0.221415
0.213358
0.205301
0.197245
0.156962
0.116678
0.052225
0.052225
0.044169
0.068339
-0.004171
-0.004171
0.044169
0.003885
0.019999
0.044169
0.019999
0.003885
-0.012228
0.003885
-0.028341
-0.205587
-0.270040
-0.382833
-0.366720
-0.374777
-0.374777
-0.407003
-0.334493
-0.286154
-0.221701
-0.157247
-0.165304
-0.141134
-0.100851
-0.092794
-0.076681
-0.044454
-0.020284
-0.020284
-0.028341
-0.004171
-0.020284
-0.012228
0.011942
0.036112
0.003885
-0.004171
0.003885
-0.012228
0.019999
-0.012228
-0.004171
-0.004171
-0.028341
-0.036398
-0.004171
-0.036398
-0.020284
-0.004171
-0.036398
-0.028341
-0.044454
-0.020284
-0.012228
-0.036398
-0.020284
-0.036398
-0.012228
-0.068624
-0.028341
-0.060568
-0.028341
-0.044454
-0.060568
-0.036398
-0.052511
-0.036398
-0.060568
-0.028341
-0.028341
-0.012228
-0.004171
-0.044454
0.036112
0.156962
0.269755
0.310038
0.358378
0.374491
0.406717
0.342264
0.326151
0.277811
0.173075
0.173075
0.092508
0.108622
0.076395
0.044169
0.068339
0.028055
-0.012228
0.003885
-0.028341
-0.020284
-0.012228
0.003885
-0.020284
-0.036398
-0.004171
-0.044454
0.003885
-0.012228
-0.020284
-0.020284
0.011942
-0.028341
0.003885
0.003885
-0.012228
-0.012228
-0.020284
-0.004171
-0.004171
0.003885
0.036112
0.011942
0.036112
0.019999
-0.004171
0.011942
0.019999
0.028055
0.011942
-0.004171
0.003885
-0.012228
-0.012228
0.011942
-0.004171
0.036112
0.011942
0.003885
-0.004171
-0.044454
0.011942
0.044169
0.100565
0.003885
-0.068624
-0.125021
-0.141134
-0.205587
-0.205587
-0.237814
-0.221701
-0.173361
-0.189474
-0.133077
-0.108908
-0.133077
-0.076681
-0.036398
-0.044454
-0.060568
-0.004171
-0.036398
0.003885
-0.004171
-0.012228
0.003885
-0.020284
-0.028341
0.011942
0.052225
0.003885
-0.020284
-0.012228
0.003885
-0.004171
-0.012228
-0.020284
-0.004171
-0.020284
-0.036398
-0.020284
-0.012228
-0.020284
-0.020284
-0.012228
-0.052511
-0.020284
0.003885
-0.020284
-0.036398
-0.036398
-0.028341
-0.036398
-0.004171
-0.052511
-0.044454
-0.036398
-0.028341
-0.044454
-0.052511
-0.052511
-0.028341
-0.020284
-0.068624
-0.020284
-0.052511
0.003885
0.197245
0.301981
0.334208
0.326151
0.358378
0.390604
0.334208
0.334208
0.277811
0.213358
0.181132
0.132792
0.116678
0.068339
0.068339
0.044169
0.028055
0.019999
-0.044454
-0.004171
-0.020284
0.028055
-0.012228
-0.004171
-0.036398
-0.044454
-0.028341
-0.012228
0.028055
-0.036398
-0.036398
-0.028341
-0.004171
0.028055
-0.004171
0.019999
0.003885
-0.004171
0.011942
-0.004171
0.003885
0.011942
-0.036398
-0.012228
0.011942
-0.004171
-0.028341
-0.012228
0.003885
0.003885
0.011942
0.052225
-0.028341
0.003885
0.003885
0.003885
0.003885
-0.004171
-0.004171
0.011942
0.028055
-0.004171
0.011942
-0.068624
-0.253927
-0.318380
-0.334493
-0.390890
-0.390890
-0.390890
-0.374777
-0.390890
-0.294210
-0.221701
-0.165304
-0.141134
-0.108908
-0.092794
-0.084738
-0.068624
-0.044454
-0.036398
-0.004171
-0.004171
-0.012228
-0.020284
0.019999
0.003885
0.011942
-0.020284
-0.012228
-0.020284
0.052225
0.197245
0.245585
0.229471
0.245585
0.197245
0.181132
0.189188
0.148905
0.108622
0.076395
0.011942
0.044169
0.019999
-0.020284
-0.012228
-0.044454
0.028055
0.003885
0.003885
-0.036398
-0.052511
-0.028341
-0.044454
-0.036398
0.003885
-0.044454
-0.068624
-0.036398
-0.012228
0.019999
-0.044454
-0.012228
-0.044454
-0.052511
0.036112
0.181132
0.293924
0.310038
0.350321
0.334208
0.342264
0.334208
0.301981
0.237528
0.189188
0.148905
0.124735
0.092508
0.092508
0.044169
0.060282
0.044169
-0.012228
0.011942
-0.036398
-0.004171
-0.028341
-0.036398
-0.052511
-0.028341
-0.012228
0.011942
-0.012228
0.044169
-0.028341
-0.020284
0.011942
-0.012228
-0.036398
-0.028341
-0.020284
0.003885
-0.012228
-0.004171
-0.020284
0.028055
-0.036398
-0.004171
0.011942
-0.004171
-0.012228
-0.004171
-0.004171
-0.012228
0.019999
0.028055
0.011942
0.003885
-0.020284
-0.020284
0.019999
-0.020284
0.019999
0.011942
0.011942
0.003885
0.044169
0.019999
-0.068624
-0.205587
-0.318380
-0.342550
-0.358663
-0.366720
-0.366720
-0.366720
-0.366720
-0.237814
-0.221701
-0.165304
-0.133077
-0.149191
-0.084738
-0.108908
-0.036398
-0.020284
-0.020284
0.011942
0.036112
-0.004171
0.003885
0.036112
-0.004171
0.019999
-0.004171
-0.012228
0.019999
-0.004171
-0.004171
0.011942
-0.012228
-0.004171
-0.020284
-0.004171
-0.012228
-0.020284
-0.004171
-0.028341
0.011942
-0.004171
-0.036398
-0.028341
-0.052511
-0.028341
-0.036398
-0.044454
-0.028341
-0.060568
-0.036398
-0.052511
-0.060568
-0.068624
-0.012228
0.148905
0.205301
0.197245
0.197245
0.197245
0.140848
0.140848
0.132792
0.052225
0.076395
0.253641
0.358378
0.366434
0.366434
0.374491
0.358378
0.374491
0.318094
0.277811
0.181132
0.132792
0.140848
0.068339
0.068339
0.068339
0.028055
0.003885
0.003885
-0.012228
-0.012228
-0.028341
-0.028341
-0.012228
-0.036398
-0.020284
-0.036398
-0.052511
-0.036398
-0.020284
-0.012228
-0.036398
-0.020284
0.003885
0.003885
-0.020284
0.028055
-0.004171
0.003885
0.003885
-0.012228
-0.004171
-0.020284
0.019999
-0.004171
0.003885
0.011942
-0.012228
-0.012228
0.011942
0.019999
0.036112
0.044169
0.028055
0.011942
0.003885
0.019999
0.060282
0.019999
0.019999
0.003885
0.003885
0.011942
-0.004171
-0.076681
-0.237814
-0.326437
-0.366720
-0.390890
-0.350607
-0.342550
-0.358663
-0.342550
-0.286154
-0.213644
-0.157247
-0.125021
-0.116964
-0.108908
-0.076681
-0.084738
-0.028341
-0.004171
-0.012228
0.011942
-0.004171
0.028055
0.028055
0.028055
-0.012228
0.003885
0.003885
-0.004171
-0.004171
-0.004171
-0.036398
0.011942
-0.020284
0.003885
0.003885
-0.012228
0.019999
0.003885
-0.020284
-0.012228
-0.012228
-0.020284
-0.020284
-0.036398
-0.028341
-0.036398
-0.028341
-0.044454
-0.060568
-0.060568
-0.004171
-0.020284
-0.020284
-0.028341
-0.044454
-0.012228
-0.012228
-0.020284
-0.012228
-0.012228
-0.052511
-0.036398
-0.052511
0.019999
0.181132
0.285868
0.334208
0.326151
0.366434
0.366434
0.342264
0.334208
0.237528
0.173075
0.165018
0.116678
0.084452
0.068339
0.019999
-0.020284
0.011942
0.011942
0.140848
0.229471
0.253641
0.221415
0.237528
0.205301
0.132792
0.156962
0.116678
0.108622
0.076395
0.019999
0.019999
0.036112
0.011942
0.003885
0.003885
-0.028341
0.036112
-0.004171
0.011942
-0.004171
0.003885
0.003885
0.011942
0.003885
0.011942
0.028055
-0.004171
0.036112
0.019999
0.011942
0.011942
-0.004171
0.003885
0.044169
0.019999
0.036112
0.028055
0.036112
0.011942
-0.004171
0.028055
0.028055
0.019999
-0.020284
-0.229757
-0.334493
-0.366720
-0.366720
-0.398947
-0.415060
-0.374777
-0.342550
-0.261984
-0.221701
-0.141134
-0.133077
-0.060568
-0.076681
-0.060568
-0.052511
-0.052511
-0.004171
0.028055
-0.012228
0.019999
-0.004171
-0.004171
0.003885
-0.020284
0.011942
-0.004171
0.011942
0.003885
0.036112
0.003885
0.011942
0.028055
-0.012228
-0.028341
0.011942
-0.004171
-0.012228
-0.044454
-0.020284
-0.036398
-0.028341
-0.044454
-0.044454
-0.020284
0.019999
-0.012228
-0.036398
-0.012228
-0.052511
-0.004171
-0.028341
-0.036398
-0.044454
-0.036398
-0.020284
-0.028341
-0.020284
-0.036398
-0.020284
0.019999
-0.044454
-0.036398
0.052225
0.189188
0.318094
0.318094
0.350321
0.358378
0.350321
0.350321
0.301981
0.285868
0.213358
0.148905
0.148905
0.140848
0.068339
0.036112
0.084452
0.052225
0.060282
0.003885
-0.020284
-0.044454
-0.028341
-0.036398
-0.028341
-0.028341
-0.020284
-0.004171
-0.044454
-0.044454
-0.020284
-0.028341
-0.036398
-0.020284
-0.036398
-0.028341
-0.036398
-0.028341
-0.036398
-0.028341
-0.020284
-0.012228
0.156962
0.197245
0.253641
0.245585
0.189188
0.229471
0.140848
0.116678
0.116678
0.108622
0.092508
0.044169
0.028055
0.052225
0.003885
0.028055
-0.004171
0.003885
-0.020284
-0.004171
0.036112
-0.028341
-0.076681
-0.197531
-0.318380
-0.358663
-0.350607
-0.390890
-0.350607
-0.390890
-0.350607
-0.245870
-0.213644
-0.149191
-0.133077
-0.076681
-0.076681
-0.100851
-0.076681
-0.036398
-0.036398
-0.020284
-0.012228
0.019999
0.019999
-0.012228
-0.004171
-0.020284
-0.012228
-0.012228
-0.012228
-0.028341
-0.004171
-0.004171
0.019999
0.011942
-0.004171
0.011942
-0.012228
0.003885
-0.012228
-0.028341
0.003885
-0.028341
-0.012228
0.028055
-0.012228
-0.020284
-0.004171
-0.004171
-0.020284
-0.028341
-0.028341
-0.036398
0.003885
-0.020284
-0.020284
-0.028341
-0.028341
-0.036398
-0.012228
-0.012228
0.011942
-0.044454
0.003885
0.011942
0.052225
0.229471
0.293924
0.350321
0.342264
0.398661
0.342264
0.342264
0.318094
0.269755
0.189188
0.148905
0.124735
0.068339
0.076395
0.068339
0.036112
0.019999
-0.012228
0.011942
-0.028341
-0.036398
-0.028341
-0.004171
0.011942
0.052225
-0.012228
-0.012228
-0.036398
-0.020284
-0.036398
-0.020284
-0.044454
-0.020284
-0.028341
-0.044454
-0.012228
-0.012228
0.011942
0.019999
-0.012228
0.019999
0.019999
-0.020284
-0.012228
-0.012228
-0.004171
-0.004171
0.028055
0.011942
-0.028341
0.019999
0.003885
0.019999
-0.012228
-0.004171
-0.012228
-0.012228
0.011942
0.011942
0.036112
0.011942
-0.004171
-0.020284
-0.084738
-0.270040
-0.334493
-0.407003
-0.423117
-0.398947
-0.415060
-0.334493
-0.141134
-0.052511
0.036112
0.052225
0.076395
0.092508
0.068339
0.076395
0.084452
0.084452
0.108622
0.019999
0.068339
0.011942
0.028055
0.052225
0.028055
0.036112
0.011942
0.003885
0.044169
0.060282
-0.004171
0.019999
0.028055
-0.020284
-0.028341
0.019999
-0.012228
-0.044454
-0.020284
-0.012228
-0.020284
-0.004171
-0.012228
-0.012228
0.011942
-0.052511
-0.004171
-0.036398
-0.036398
-0.020284
-0.036398
-0.044454
-0.052511
-0.044454
-0.012228
-0.036398
-0.036398
-0.044454
-0.052511
-0.020284
-0.068624
-0.036398
-0.036398
0.003885
0.052225
0.229471
0.326151
0.358378
0.350321
0.358378
0.350321
0.350321
0.293924
0.261698
0.189188
0.140848
0.132792
0.092508
0.060282
0.044169
0.036112
0.003885
-0.020284
0.003885
-0.036398
-0.012228
-0.044454
-0.044454
-0.020284
-0.044454
-0.028341
-0.004171
-0.036398
0.019999
-0.036398
0.011942
-0.012228
0.003885
-0.020284
-0.020284
-0.036398
-0.020284
-0.004171
0.019999
-0.020284
0.019999
-0.004171
0.003885
0.011942
-0.004171
0.003885
-0.028341
0.019999
0.011942
0.019999
-0.004171
-0.012228
0.003885
0.011942
0.019999
0.019999
0.019999
-0.004171
0.019999
-0.012228
0.052225
-0.004171
0.011942
-0.060568
-0.221701
-0.302267
-0.342550
-0.382833
-0.366720
-0.398947
-0.366720
-0.342550
-0.261984
-0.237814
-0.181417
-0.133077
-0.116964
-0.084738
-0.084738
-0.036398
-0.036398
-0.012228
-0.004171
-0.020284
-0.028341
-0.012228
-0.012228
-0.028341
-0.020284
-0.020284
-0.012228
-0.028341
-0.004171
-0.020284
-0.036398
0.044169
0.148905
0.229471
0.253641
0.237528
0.173075
0.173075
0.148905
0.132792
0.084452
0.044169
0.036112
-0.020284
0.003885
0.003885
-0.004171
-0.020284
-0.052511
-0.004171
-0.044454
-0.044454
-0.036398
-0.020284
-0.020284
-0.012228
-0.012228
-0.028341
-0.036398
-0.044454
-0.052511
-0.036398
-0.036398
0.060282
0.237528
0.261698
0.326151
0.342264
0.382548
0.350321
0.366434
0.318094
0.245585
0.173075
0.148905
0.100565
0.068339
0.060282
0.052225
-0.004171
0.019999
-0.028341
-0.004171
-0.036398
-0.052511
-0.044454
-0.052511
-0.012228
-0.036398
-0.036398
-0.012228
-0.012228
-0.036398
0.011942
-0.020284
-0.004171
0.011942
0.003885
0.019999
-0.012228
-0.012228
0.028055
0.019999
-0.004171
-0.012228
0.011942
0.003885
0.028055
0.003885
0.011942
-0.044454
-0.020284
0.003885
0.028055
0.019999
0.019999
0.011942
0.003885
0.003885
-0.004171
-0.028341
0.028055
-0.012228
-0.012228
0.011942
0.011942
0.011942
-0.060568
-0.245870
-0.326437
-0.350607
-0.398947
-0.382833
-0.374777
-0.374777
-0.310324
-0.278097
-0.221701
-0.157247
-0.100851
-0.084738
-0.100851
-0.052511
-0.068624
-0.036398
0.003885
-0.012228
-0.012228
0.011942
0.028055
-0.004171
0.019999
-0.012228
0.011942
0.003885
-0.004171
0.003885
0.003885
-0.012228
0.003885
0.011942
0.019999
-0.004171
-0.004171
-0.012228
-0.020284
-0.020284
-0.028341
-0.044454
0.011942
-0.004171
-0.036398
-0.036398
-0.028341
-0.020284
-0.020284
-0.044454
-0.068624
-0.036398
-0.044454
-0.020284
-0.052511
-0.036398
-0.044454
-0.020284
-0.068624
-0.068624
-0.028341
0.092508
0.189188
0.197245
0.318094
0.430887
0.503397
0.487284
0.535624
0.519510
0.503397
0.438944
0.342264
0.310038
0.213358
0.148905
0.148905
0.116678
0.084452
0.052225
0.060282
-0.004171
-0.036398
-0.028341
-0.020284
-0.004171
-0.044454
-0.020284
-0.036398
-0.036398
-0.044454
0.003885
-0.020284
-0.004171
-0.036398
0.003885
-0.012228
-0.028341
-0.012228
-0.012228
-0.012228
0.003885
-0.028341
-0.020284
-0.004171
-0.036398
-0.028341
-0.020284
-0.020284
-0.012228
0.019999
0.011942
-0.036398
0.011942
-0.012228
0.019999
-0.012228
-0.020284
-0.004171
0.019999
-0.004171
0.036112
-0.004171
0.036112
0.003885
0.019999
0.003885
0.011942
-0.092794
-0.261984
-0.334493
-0.382833
-0.366720
-0.358663
-0.390890
-0.366720
-0.350607
-0.237814
-0.205587
-0.165304
-0.157247
-0.100851
-0.092794
-0.076681
-0.044454
-0.036398
-0.020284
0.003885
0.011942
0.028055
0.003885
-0.036398
-0.028341
0.003885
0.044169
-0.012228
-0.004171
-0.020284
-0.004171
-0.036398
0.019999
0.011942
-0.028341
0.028055
0.019999
0.003885
-0.020284
-0.020284
-0.028341
-0.004171
-0.012228
-0.020284
-0.052511
-0.028341
-0.004171
-0.004171
-0.012228
-0.004171
-0.012228
-0.012228
-0.036398
-0.028341
-0.036398
-0.044454
-0.036398
-0.020284
-0.044454
-0.004171
0.019999
-0.028341
-0.020284
-0.036398
0.076395
0.237528
0.326151
0.334208
0.342264
0.350321
0.350321
0.334208
0.285868
0.221415
0.189188
0.140848
0.084452
0.060282
0.052225
0.011942
0.003885
-0.004171
-0.036398
0.028055
0.116678
0.221415
0.189188
0.205301
