-1.327280
-1.295054
-0.650522
-0.666636
-1.085581
-0.916391
-0.763315
-0.634409
-0.553843
-0.497446
-0.497446
-0.432993
-0.384653
-0.352427
-0.328257
-0.352427
-0.312143
-0.255747
-0.175181
-0.118784
-0.094614
-0.110727
-0.118784
-0.142954
-0.142954
-0.126841
-0.094614
-0.110727
-0.046274
-0.054331
-0.030161
-0.030161
-0.030161
-0.030161
-0.046274
-0.062388
-0.078501
-0.102671
-0.102671
-0.110727
-0.134897
-0.126841
-0.159067
-0.191294
-0.159067
-0.199350
-0.183237
-0.183237
-0.183237
-0.199350
-0.207407
-0.223520
-0.199350
-0.207407
-0.175181
-0.142954
-0.175181
-0.167124
-0.151011
-0.142954
-0.134897
-0.086557
-0.086557
-0.118784
-0.118784
-0.110727
-0.078501
0.058462
0.404898
0.582144
0.574087
0.525747
0.557974
0.574087
0.566030
0.638540
0.702993
0.694937
0.711050
0.678823
0.630484
0.509634
0.364614
0.332388
0.259878
0.219595
0.203482
0.179312
0.179312
0.122915
0.090689
0.082632
0.066519
0.050405
-0.022104
-0.014048
0.026235
-0.005991
-0.005991
-0.022104
0.002066
0.002066
-0.014048
-0.022104
0.002066
-0.022104
-0.038218
0.002066
-0.005991
0.002066
-0.005991
0.010122
-0.030161
0.002066
0.018179
0.010122
0.002066
0.034292
0.026235
0.018179
0.018179
0.002066
0.010122
-0.005991
0.010122
0.010122
0.010122
0.002066
0.002066
0.018179
-0.070444
-0.304087
-0.586069
-0.706919
-0.706919
-0.610239
-0.586069
-0.586069
-0.586069
-0.545786
-0.481333
-0.465220
-0.432993
-0.489390
-0.424936
-0.376597
-0.312143
-0.271860
-0.215464
-0.199350
-0.199350
-0.151011
-0.134897
-0.118784
-0.110727
-0.094614
-0.078501
-0.014048
-0.022104
0.042349
-0.014048
0.010122
0.010122
0.010122
0.042349
0.010122
-0.022104
-0.005991
-0.038218
-0.005991
-0.022104
-0.030161
-0.062388
-0.054331
-0.038218
-0.070444
-0.038218
-0.054331
-0.094614
-0.054331
-0.102671
-0.102671
-0.070444
-0.062388
-0.054331
-0.062388
-0.030161
-0.046274
-0.070444
-0.030161
-0.062388
-0.046274
-0.046274
-0.022104
-0.038218
-0.022104
0.171255
0.412954
0.485464
0.517691
0.525747
0.517691
0.509634
0.461294
0.453237
0.437124
0.421011
0.404898
0.412954
0.332388
0.227652
0.203482
0.155142
0.179312
0.090689
0.114859
0.090689
0.066519
0.026235
0.018179
-0.022104
-0.014048
-0.014048
-0.054331
-0.046274
-0.062388
-0.038218
-0.014048
0.106802
0.179312
0.211538
0.243765
0.179312
0.163198
0.090689
0.050405
0.074575
0.018179
0.018179
-0.014048
0.010122
-0.038218
0.002066
0.026235
0.010122
-0.030161
-0.014048
-0.005991
0.010122
-0.005991
-0.014048
-0.014048
0.018179
0.010122
0.050405
0.026235
0.034292
0.026235
0.026235
0.034292
-0.005991
0.018179
-0.030161
-0.215464
-0.376597
-0.441050
-0.489390
-0.432993
-0.424936
-0.408823
-0.416880
-0.392710
-0.344370
-0.304087
-0.247690
-0.183237
-0.134897
-0.126841
-0.118784
-0.110727
-0.110727
-0.078501
-0.030161
-0.030161
-0.030161
0.002066
0.010122
0.010122
0.018179
0.018179
0.034292
0.002066
0.002066
0.034292
0.018179
0.010122
0.002066
-0.038218
-0.046274
-0.030161
0.002066
-0.038218
-0.046274
-0.038218
-0.022104
-0.054331
-0.014048
-0.005991
-0.046274
-0.054331
-0.070444
-0.046274
-0.030161
-0.070444
-0.054331
-0.054331
-0.054331
-0.046274
-0.030161
0.002066
-0.038218
-0.038218
-0.046274
-0.022104
-0.022104
-0.022104
0.026235
0.147085
0.292105
0.396841
0.421011
0.445181
0.421011
0.380728
0.421011
0.429068
0.348501
0.308218
0.219595
0.187368
0.122915
0.114859
0.114859
0.114859
0.066519
0.098745
0.042349
0.026235
-0.022104
-0.014048
0.018179
-0.022104
-0.014048
0.002066
-0.014048
0.002066
-0.046274
0.018179
-0.030161
-0.030161
-0.005991
-0.005991
0.002066
-0.005991
0.010122
-0.005991
-0.038218
-0.005991
-0.014048
-0.022104
0.002066
0.002066
-0.022104
0.026235
0.010122
-0.022104
-0.005991
0.010122
-0.030161
-0.014048
-0.005991
-0.005991
-0.005991
0.002066
0.090689
0.211538
0.227652
0.251821
0.187368
0.227652
0.147085
0.010122
-0.215464
-0.320200
-0.408823
-0.441050
-0.376597
-0.384653
-0.416880
-0.376597
-0.352427
-0.271860
-0.215464
-0.207407
-0.126841
-0.134897
-0.070444
-0.070444
-0.046274
-0.014048
-0.038218
0.010122
0.026235
0.034292
0.042349
0.010122
0.018179
0.018179
0.002066
-0.038218
0.002066
-0.022104
-0.022104
-0.005991
-0.005991
-0.014048
-0.030161
0.002066
-0.022104
-0.038218
-0.014048
-0.030161
-0.054331
0.002066
-0.030161
-0.046274
-0.022104
-0.022104
-0.022104
-0.005991
-0.014048
-0.014048
-0.030161
-0.005991
-0.022104
-0.014048
-0.038218
-0.062388
-0.014048
-0.005991
-0.005991
-0.030161
-0.046274
-0.038218
-0.054331
0.074575
0.235708
0.364614
0.445181
0.421011
0.437124
0.364614
0.372671
0.388784
0.340444
0.292105
0.219595
0.187368
0.122915
0.114859
0.098745
0.090689
0.082632
0.034292
0.002066
-0.014048
0.018179
0.018179
-0.022104
-0.046274
-0.038218
-0.005991
-0.014048
-0.014048
-0.014048
-0.005991
-0.005991
-0.014048
-0.014048
-0.022104
0.026235
0.010122
-0.005991
-0.005991
-0.038218
0.010122
-0.005991
-0.005991
-0.014048
-0.005991
-0.005991
-0.005991
0.034292
0.042349
0.026235
0.018179
0.042349
0.002066
0.026235
0.018179
-0.014048
-0.030161
0.002066
0.010122
0.010122
0.034292
0.010122
-0.014048
0.026235
-0.078501
-0.263804
-0.360483
-0.424936
-0.368540
-0.376597
-0.424936
-0.392710
-0.376597
-0.352427
-0.279917
-0.231577
-0.175181
-0.151011
-0.134897
-0.118784
-0.005991
0.171255
0.243765
0.195425
0.203482
0.163198
0.155142
0.098745
0.074575
0.034292
0.042349
0.026235
0.018179
0.034292
0.026235
0.010122
0.010122
0.002066
-0.030161
-0.046274
-0.022104
-0.022104
-0.005991
-0.014048
-0.054331
-0.030161
-0.014048
-0.005991
-0.022104
-0.054331
-0.046274
-0.054331
-0.014048
-0.022104
-0.046274
-0.062388
-0.038218
-0.022104
-0.014048
-0.062388
-0.062388
-0.022104
-0.046274
-0.070444
-0.005991
-0.062388
-0.038218
-0.022104
0.058462
0.243765
0.380728
0.445181
0.421011
0.396841
0.396841
0.372671
0.356558
0.372671
0.251821
0.211538
0.155142
0.114859
0.106802
0.098745
0.066519
0.042349
0.058462
0.010122
0.002066
-0.022104
-0.046274
-0.005991
-0.022104
0.002066
-0.038218
-0.038218
-0.014048
0.002066
0.002066
0.026235
-0.014048
-0.014048
-0.022104
0.026235
-0.030161
-0.014048
-0.022104
-0.014048
-0.014048
-0.005991
-0.014048
0.050405
-0.014048
-0.022104
0.010122
0.010122
-0.022104
-0.005991
0.010122
0.018179
0.002066
-0.005991
0.018179
-0.014048
-0.022104
0.050405
0.018179
-0.014048
0.026235
-0.022104
-0.005991
0.010122
-0.062388
-0.247690
-0.360483
-0.441050
-0.416880
-0.368540
-0.392710
-0.392710
-0.392710
-0.344370
-0.231577
-0.191294
-0.199350
-0.142954
-0.086557
-0.070444
-0.110727
-0.070444
-0.062388
0.010122
0.010122
0.010122
0.018179
0.010122
0.026235
-0.005991
-0.005991
-0.022104
0.010122
0.002066
-0.014048
-0.014048
-0.014048
-0.014048
0.002066
0.010122
-0.014048
-0.030161
-0.022104
-0.022104
0.002066
-0.038218
-0.046274
-0.078501
-0.038218
0.010122
0.106802
0.155142
0.219595
0.187368
0.227652
0.155142
0.122915
0.074575
0.026235
0.002066
0.034292
-0.030161
0.018179
-0.030161
-0.038218
-0.054331
-0.005991
-0.014048
0.074575
0.219595
0.324331
0.388784
0.437124
0.404898
0.356558
0.364614
0.356558
0.348501
0.292105
0.195425
0.219595
0.130972
0.106802
0.082632
0.058462
0.010122
0.034292
-0.022104
-0.014048
-0.022104
0.026235
-0.030161
-0.005991
-0.022104
0.002066
-0.022104
-0.038218
-0.014048
0.026235
-0.014048
-0.005991
0.018179
-0.014048
-0.005991
-0.038218
0.002066
-0.022104
-0.038218
0.010122
-0.022104
0.002066
-0.030161
0.034292
0.002066
-0.014048
-0.014048
-0.022104
-0.030161
0.018179
-0.022104
0.018179
-0.005991
-0.022104
-0.005991
-0.014048
0.018179
0.050405
-0.014048
0.026235
0.018179
0.010122
0.002066
-0.086557
-0.263804
-0.400766
-0.408823
-0.408823
-0.400766
-0.384653
-0.408823
-0.360483
-0.328257
-0.247690
-0.183237
-0.126841
-0.134897
-0.102671
-0.070444
-0.022104
-0.054331
0.002066
-0.014048
0.002066
0.010122
0.010122
0.010122
0.010122
0.002066
-0.014048
0.018179
0.026235
0.042349
0.002066
0.010122
0.002066
-0.014048
-0.022104
-0.005991
0.010122
-0.005991
0.010122
-0.005991
-0.022104
-0.022104
-0.030161
-0.038218
-0.014048
-0.038218
0.002066
-0.022104
-0.022104
-0.054331
-0.014048
-0.014048
-0.062388
-0.046274
-0.022104
-0.022104
-0.030161
-0.022104
-0.005991
0.002066
-0.038218
-0.014048
-0.030161
-0.014048
0.042349
0.227652
0.380728
0.412954
0.380728
0.356558
0.348501
0.477407
0.557974
0.549917
0.453237
0.421011
0.332388
0.292105
0.219595
0.130972
0.098745
0.074575
0.026235
0.042349
-0.022104
-0.030161
0.010122
-0.038218
-0.022104
-0.014048
-0.014048
-0.030161
0.010122
-0.005991
-0.014048
-0.005991
-0.005991
-0.022104
-0.046274
0.010122
-0.014048
-0.014048
-0.014048
-0.022104
-0.030161
-0.022104
0.018179
0.002066
0.010122
0.026235
-0.022104
0.010122
0.002066
0.034292
0.010122
0.034292
0.042349
-0.014048
0.002066
0.010122
0.026235
0.026235
-0.014048
-0.005991
0.026235
-0.030161
0.026235
0.010122
-0.094614
-0.279917
-0.352427
-0.432993
-0.416880
-0.384653
-0.400766
-0.400766
-0.392710
-0.368540
-0.287973
-0.199350
-0.151011
-0.118784
-0.102671
-0.046274
-0.070444
-0.086557
0.010122
-0.014048
0.002066
0.002066
0.010122
0.034292
0.034292
0.018179
0.034292
-0.014048
-0.005991
0.018179
0.010122
-0.014048
0.010122
0.002066
-0.014048
-0.005991
-0.046274
-0.014048
0.002066
-0.022104
0.002066
-0.005991
0.002066
-0.014048
-0.022104
-0.014048
-0.014048
0.010122
-0.038218
-0.022104
-0.014048
-0.030161
-0.046274
-0.030161
-0.038218
-0.038218
0.002066
0.002066
-0.038218
-0.046274
-0.038218
0.002066
-0.038218
0.010122
0.074575
0.259878
0.340444
0.429068
0.412954
0.380728
0.356558
0.388784
0.364614
0.284048
0.243765
0.203482
0.179312
0.098745
0.122915
0.058462
0.074575
0.026235
0.026235
0.018179
0.010122
-0.030161
-0.022104
0.018179
-0.014048
0.010122
-0.030161
-0.046274
-0.030161
-0.038218
-0.054331
-0.022104
-0.038218
-0.014048
-0.030161
0.010122
0.179312
0.195425
0.227652
0.211538
0.179312
0.130972
0.106802
0.090689
0.050405
0.066519
0.042349
0.042349
0.026235
0.034292
-0.014048
0.018179
0.010122
-0.022104
0.010122
0.002066
-0.014048
0.010122
0.026235
0.010122
-0.005991
-0.014048
-0.022104
-0.005991
-0.094614
-0.287973
-0.384653
-0.416880
-0.408823
-0.384653
-0.384653
-0.368540
-0.344370
-0.344370
-0.255747
-0.247690
-0.167124
-0.126841
-0.110727
-0.102671
-0.070444
-0.054331
-0.038218
-0.030161
-0.030161
-0.022104
-0.038218
0.026235
0.010122
-0.005991
0.002066
0.002066
0.042349
-0.014048
0.034292
0.026235
-0.005991
-0.022104
-0.014048
-0.014048
-0.005991
-0.014048
-0.038218
-0.005991
-0.014048
-0.014048
-0.005991
-0.030161
-0.014048
-0.005991
-0.046274
-0.014048
-0.030161
-0.022104
-0.054331
-0.022104
-0.046274
-0.014048
-0.022104
0.010122
-0.046274
-0.038218
-0.005991
-0.046274
-0.005991
-0.005991
0.018179
-0.022104
0.122915
0.243765
0.380728
0.396841
0.404898
0.356558
0.372671
0.380728
0.380728
0.308218
0.267935
0.203482
0.139028
0.147085
0.106802
0.130972
0.082632
0.050405
0.026235
-0.005991
0.002066
-0.005991
0.010122
-0.014048
-0.022104
-0.054331
-0.022104
-0.038218
0.002066
-0.030161
-0.005991
-0.030161
0.002066
0.018179
-0.014048
-0.030161
-0.030161
-0.005991
-0.014048
-0.005991
0.018179
-0.014048
-0.014048
-0.005991
0.018179
-0.005991
0.018179
-0.022104
0.034292
0.018179
-0.014048
0.002066
0.002066
-0.005991
0.002066
0.002066
-0.014048
-0.014048
0.066519
0.195425
0.235708
0.259878
0.227652
0.243765
0.050405
-0.167124
-0.320200
-0.336313
-0.384653
-0.352427
-0.352427
-0.392710
-0.312143
-0.312143
-0.263804
-0.199350
-0.142954
-0.118784
-0.126841
-0.038218
-0.070444
-0.062388
-0.054331
-0.022104
0.002066
-0.022104
0.026235
0.002066
0.010122
0.042349
0.018179
0.034292
0.002066
0.010122
0.034292
-0.005991
-0.022104
-0.014048
0.010122
0.010122
-0.014048
-0.014048
-0.022104
-0.030161
-0.022104
-0.022104
-0.014048
-0.005991
-0.038218
-0.038218
0.018179
-0.030161
-0.014048
-0.030161
0.002066
-0.005991
0.026235
0.002066
-0.030161
-0.038218
-0.014048
-0.022104
0.010122
-0.022104
-0.054331
-0.046274
-0.046274
0.002066
0.139028
0.259878
0.388784
0.429068
0.348501
0.364614
0.388784
0.348501
0.364614
0.292105
0.227652
0.171255
0.171255
0.139028
0.098745
0.066519
0.050405
0.034292
0.034292
0.002066
0.002066
0.018179
-0.030161
-0.030161
-0.030161
-0.030161
0.002066
-0.005991
-0.022104
-0.014048
-0.038218
-0.054331
-0.038218
0.018179
-0.022104
-0.022104
-0.022104
-0.005991
-0.022104
0.010122
0.018179
-0.005991
0.002066
0.002066
0.050405
0.002066
0.018179
0.002066
-0.005991
-0.005991
0.018179
0.018179
0.034292
0.002066
0.002066
0.018179
-0.005991
0.002066
0.018179
-0.005991
0.042349
-0.022104
0.026235
-0.005991
-0.142954
-0.312143
-0.408823
-0.441050
-0.408823
-0.392710
-0.392710
-0.400766
-0.352427
-0.320200
-0.239634
-0.199350
-0.151011
-0.151011
-0.118784
-0.102671
-0.102671
-0.062388
0.002066
0.002066
-0.014048
0.010122
-0.005991
-0.022104
0.130972
0.203482
0.243765
0.219595
0.235708
0.147085
0.114859
0.147085
0.122915
0.082632
0.058462
0.034292
0.002066
-0.005991
0.002066
-0.046274
-0.005991
-0.022104
-0.022104
-0.005991
-0.030161
-0.022104
-0.005991
-0.022104
-0.030161
-0.005991
0.018179
-0.014048
-0.046274
-0.014048
-0.022104
-0.022104
-0.038218
-0.038218
-0.030161
-0.005991
0.002066
-0.022104
-0.038218
0.018179
0.147085
0.300161
0.380728
0.396841
0.404898
0.404898
0.372671
0.348501
0.316275
0.275991
0.211538
0.171255
0.155142
0.114859
0.122915
0.082632
0.074575
0.034292
-0.005991
-0.005991
0.002066
-0.005991
-0.030161
-0.005991
0.026235
0.002066
0.002066
0.018179
-0.014048
-0.030161
-0.005991
-0.014048
-0.005991
-0.014048
-0.030161
-0.005991
-0.014048
-0.022104
0.010122
0.002066
-0.022104
-0.038218
0.018179
0.002066
0.018179
0.002066
0.018179
-0.022104
-0.005991
0.010122
0.010122
-0.005991
-0.005991
-0.005991
0.010122
0.034292
0.018179
0.010122
0.010122
0.034292
0.026235
-0.022104
0.026235
0.010122
-0.175181
-0.336313
-0.384653
-0.432993
-0.392710
-0.360483
-0.400766
-0.336313
-0.344370
-0.271860
-0.239634
-0.191294
-0.142954
-0.118784
-0.094614
-0.046274
-0.070444
-0.038218
0.002066
-0.030161
0.018179
-0.022104
0.018179
0.026235
0.026235
0.010122
0.010122
0.010122
0.002066
0.026235
-0.022104
0.026235
-0.005991
0.018179
0.026235
-0.030161
0.018179
-0.014048
-0.046274
-0.030161
-0.030161
-0.014048
-0.046274
-0.038218
-0.022104
-0.054331
-0.030161
-0.005991
-0.030161
0.074575
0.163198
0.179312
0.187368
0.147085
0.130972
0.082632
0.082632
0.066519
0.042349
-0.014048
-0.014048
-0.014048
-0.022104
0.002066
0.179312
0.332388
0.388784
0.412954
0.372671
0.388784
0.364614
0.372671
0.332388
0.275991
0.235708
0.195425
0.163198
0.074575
0.098745
0.098745
0.058462
0.050405
0.002066
-0.022104
-0.005991
-0.005991
-0.038218
-0.014048
-0.030161
-0.005991
-0.022104
-0.022104
0.010122
-0.022104
-0.014048
-0.022104
-0.005991
-0.005991
0.002066
-0.030161
-0.005991
-0.022104
0.010122
0.010122
-0.005991
-0.014048
0.002066
-0.014048
0.010122
0.002066
0.002066
0.018179
0.034292
0.018179
0.002066
0.002066
0.002066
-0.005991
0.002066
-0.005991
0.026235
0.010122
0.010122
0.002066
0.002066
0.034292
0.018179
-0.022104
-0.126841
-0.328257
-0.400766
-0.360483
-0.392710
-0.416880
-0.376597
-0.400766
-0.344370
-0.279917
-0.239634
-0.191294
-0.167124
-0.134897
-0.078501
-0.086557
-0.030161
-0.030161
-0.014048
-0.022104
-0.005991
0.002066
0.026235
0.026235
0.002066
0.010122
0.010122
0.058462
-0.005991
0.002066
0.026235
0.018179
0.002066
0.034292
0.002066
-0.005991
0.002066
0.018179
-0.014048
0.002066
-0.030161
-0.030161
-0.046274
-0.030161
-0.038218
-0.014048
-0.022104
0.002066
-0.005991
-0.046274
-0.022104
-0.030161
-0.030161
-0.022104
-0.030161
-0.030161
-0.062388
-0.046274
-0.005991
-0.022104
-0.054331
-0.022104
-0.046274
-0.005991
0.139028
0.332388
0.396841
0.396841
0.364614
0.364614
0.396841
0.380728
0.300161
0.284048
0.179312
0.163198
0.106802
0.130972
0.267935
0.284048
0.284048
0.259878
0.219595
0.179312
0.139028
0.058462
0.050405
0.010122
0.010122
0.026235
-0.030161
-0.022104
-0.030161
-0.046274
0.002066
-0.046274
-0.014048
0.010122
-0.014048
-0.005991
-0.022104
-0.038218
-0.030161
-0.038218
-0.030161
-0.005991
0.018179
0.002066
0.034292
0.010122
0.010122
0.010122
0.026235
0.002066
0.026235
0.034292
0.010122
0.018179
0.026235
0.018179
0.002066
0.026235
0.002066
0.002066
0.010122
0.018179
-0.022104
-0.030161
-0.199350
-0.336313
-0.441050
-0.408823
-0.400766
-0.352427
-0.400766
-0.432993
-0.328257
-0.296030
-0.191294
-0.191294
-0.159067
-0.086557
-0.086557
-0.062388
-0.062388
-0.054331
-0.046274
0.010122
0.002066
0.002066
0.002066
0.018179
0.018179
0.026235
0.026235
-0.005991
0.010122
0.026235
0.010122
0.026235
0.002066
0.010122
0.002066
-0.022104
-0.005991
0.002066
0.018179
-0.005991
-0.014048
-0.005991
0.026235
-0.030161
-0.005991
-0.054331
0.018179
0.002066
-0.005991
-0.014048
-0.005991
-0.038218
-0.046274
-0.030161
-0.046274
-0.054331
-0.038218
-0.022104
-0.022104
-0.030161
-0.014048
-0.030161
-0.014048
-0.014048
0.211538
0.356558
0.412954
0.356558
0.380728
0.404898
0.396841
0.372671
0.340444
0.259878
0.203482
0.122915
0.122915
0.098745
0.074575
0.058462
0.058462
0.042349
0.026235
0.010122
0.002066
-0.014048
-0.038218
-0.014048
-0.038218
-0.038218
-0.014048
-0.005991
-0.030161
-0.005991
-0.046274
-0.030161
-0.022104
-0.014048
-0.046274
-0.030161
0.018179
0.179312
0.211538
0.259878
0.227652
0.195425
0.139028
0.147085
0.090689
0.042349
0.050405
0.010122
0.074575
0.034292
0.010122
0.026235
0.002066
0.002066
-0.005991
0.010122
-0.005991
0.034292
-0.005991
-0.022104
0.002066
0.002066
0.002066
-0.054331
-0.207407
-0.328257
-0.392710
-0.424936
-0.432993
-0.376597
-0.392710
-0.376597
-0.320200
-0.279917
-0.231577
-0.134897
-0.142954
-0.110727
-0.110727
-0.086557
-0.078501
-0.054331
0.002066
0.018179
0.026235
0.002066
0.010122
0.018179
0.010122
0.010122
0.034292
0.026235
-0.005991
-0.005991
0.010122
-0.005991
-0.014048
0.002066
-0.014048
0.010122
-0.022104
-0.014048
-0.014048
-0.014048
0.018179
-0.022104
-0.005991
-0.030161
-0.022104
0.018179
-0.038218
0.010122
-0.005991
-0.005991
-0.022104
-0.030161
0.002066
-0.038218
-0.005991
-0.030161
-0.005991
-0.054331
-0.022104
-0.038218
-0.062388
-0.070444
-0.046274
0.050405
0.171255
0.348501
0.364614
0.396841
0.412954
0.412954
0.364614
0.372671
0.340444
0.275991
0.195425
0.179312
0.139028
0.122915
0.090689
0.066519
0.050405
0.018179
0.050405
0.058462
-0.054331
0.002066
-0.005991
0.010122
-0.014048
-0.038218
-0.005991
-0.022104
-0.022104
-0.030161
-0.046274
-0.022104
-0.005991
-0.022104
-0.005991
0.010122
0.010122
0.026235
-0.005991
0.002066
-0.022104
0.026235
0.002066
0.010122
-0.005991
-0.022104
0.010122
-0.005991
0.010122
-0.014048
-0.005991
0.042349
0.010122
0.010122
0.034292
0.010122
0.002066
-0.030161
0.002066
0.010122
0.010122
0.026235
0.010122
-0.038218
-0.255747
-0.360483
-0.344370
-0.255747
-0.175181
-0.134897
-0.191294
-0.175181
-0.167124
-0.183237
-0.142954
-0.118784
-0.086557
-0.078501
-0.062388
-0.054331
-0.054331
-0.038218
-0.014048
-0.014048
0.026235
0.018179
0.010122
0.010122
-0.005991
-0.030161
0.002066
0.010122
-0.022104
0.002066
-0.014048
-0.014048
0.010122
-0.046274
-0.030161
-0.022104
0.002066
-0.022104
0.010122
-0.022104
-0.046274
-0.054331
-0.046274
0.026235
-0.046274
-0.005991
0.010122
-0.038218
-0.022104
-0.030161
-0.038218
-0.030161
-0.038218
-0.022104
-0.030161
-0.030161
-0.014048
-0.062388
-0.030161
-0.038218
-0.014048
0.010122
-0.014048
0.034292
0.259878
0.364614
0.396841
0.388784
0.396841
0.364614
0.364614
0.372671
0.332388
0.267935
0.235708
0.155142
0.090689
0.090689
0.074575
0.066519
0.042349
0.026235
0.002066
-0.005991
-0.014048
-0.038218
0.010122
-0.038218
-0.038218
-0.022104
-0.030161
-0.014048
-0.022104
-0.030161
-0.022104
-0.030161
0.002066
-0.030161
0.002066
-0.014048
-0.005991
0.010122
-0.014048
-0.014048
0.026235
0.010122
0.002066
-0.005991
-0.005991
0.010122
-0.022104
0.026235
0.042349
0.018179
-0.005991
0.010122
0.002066
0.002066
0.010122
0.050405
0.010122
-0.005991
0.026235
0.002066
0.026235
0.002066
0.018179
-0.038218
-0.263804
-0.360483
-0.392710
-0.392710
-0.408823
-0.392710
-0.416880
-0.360483
-0.352427
-0.271860
-0.199350
-0.159067
-0.151011
-0.118784
-0.094614
-0.086557
-0.078501
-0.046274
-0.022104
0.018179
-0.014048
-0.005991
-0.014048
0.010122
-0.038218
0.002066
-0.038218
0.026235
0.203482
0.259878
0.219595
0.251821
0.163198
0.163198
0.098745
0.058462
0.050405
0.010122
0.018179
-0.005991
-0.030161
0.002066
-0.005991
-0.005991
-0.022104
-0.014048
0.002066
-0.014048
-0.014048
-0.038218
-0.054331
-0.014048
-0.014048
0.018179
-0.005991
-0.022104
-0.038218
-0.046274
0.018179
-0.030161
-0.038218
0.010122
-0.022104
0.042349
0.227652
0.364614
0.396841
0.388784
0.388784
0.421011
0.356558
0.364614
0.324331
0.235708
0.211538
0.163198
0.098745
0.090689
0.066519
0.074575
0.058462
0.050405
0.010122
0.002066
-0.014048
-0.038218
-0.022104
-0.030161
0.026235
-0.038218
0.026235
-0.014048
-0.014048
-0.014048
-0.022104
-0.005991
-0.005991
-0.005991
-0.014048
-0.014048
-0.005991
0.002066
0.002066
0.002066
0.018179
0.018179
0.026235
0.026235
0.018179
0.010122
0.002066
0.018179
0.026235
0.026235
0.002066
0.026235
0.018179
0.002066
-0.005991
0.026235
0.002066
0.034292
0.034292
0.042349
0.010122
0.002066
0.026235
-0.102671
-0.263804
-0.392710
-0.424936
-0.424936
-0.400766
-0.376597
-0.392710
-0.376597
-0.255747
-0.263804
-0.207407
-0.167124
-0.134897
-0.094614
-0.086557
-0.086557
-0.078501
-0.014048
-0.005991
0.010122
-0.014048
0.010122
0.026235
-0.005991
0.010122
-0.005991
0.018179
-0.005991
-0.014048
0.002066
-0.005991
-0.014048
0.026235
0.066519
-0.038218
0.018179
0.026235
-0.022104
0.018179
-0.022104
-0.014048
-0.022104
-0.038218
-0.014048
-0.022104
-0.030161
-0.046274
-0.046274
-0.054331
-0.054331
-0.030161
-0.030161
-0.014048
-0.046274
-0.022104
0.042349
0.106802
0.227652
0.235708
0.179312
0.179312
0.098745
0.042349
0.130972
0.292105
0.396841
0.429068
0.429068
0.388784
0.364614
0.404898
0.356558
0.308218
0.259878
0.187368
0.155142
0.122915
0.074575
0.074575
0.066519
0.050405
0.034292
0.018179
0.002066
-0.022104
-0.030161
-0.005991
-0.030161
0.002066
-0.054331
-0.030161
-0.046274
0.018179
-0.022104
0.010122
-0.038218
-0.022104
-0.038218
-0.030161
-0.038218
0.002066
-0.030161
-0.005991
-0.005991
-0.005991
0.010122
-0.014048
0.018179
0.018179
0.002066
-0.005991
0.002066
0.002066
-0.014048
0.018179
0.034292
0.026235
0.010122
0.018179
0.010122
-0.022104
0.034292
0.010122
0.026235
0.002066
0.010122
0.034292
-0.110727
-0.263804
-0.376597
-0.392710
-0.416880
-0.400766
-0.392710
-0.416880
-0.352427
-0.312143
-0.263804
-0.223520
-0.183237
-0.159067
-0.118784
-0.094614
-0.038218
-0.046274
-0.030161
0.002066
-0.005991
0.018179
0.026235
0.010122
0.010122
0.018179
0.010122
0.002066
0.002066
0.010122
0.010122
-0.005991
0.010122
-0.005991
0.018179
0.002066
0.002066
-0.014048
-0.014048
0.002066
0.002066
0.010122
-0.022104
0.010122
-0.030161
0.042349
-0.014048
-0.022104
0.002066
-0.038218
-0.014048
-0.022104
-0.022104
-0.030161
-0.005991
-0.030161
-0.030161
-0.022104
-0.022104
-0.022104
-0.030161
-0.022104
-0.022104
-0.005991
0.106802
0.259878
0.388784
0.364614
0.429068
0.380728
0.372671
0.340444
0.348501
0.292105
0.211538
0.203482
0.163198
0.106802
0.082632
0.106802
0.187368
0.243765
0.284048
0.227652
0.114859
0.106802
0.066519
0.018179
0.026235
-0.005991
0.002066
-0.005991
-0.014048
-0.022104
-0.014048
-0.030161
0.018179
0.010122
-0.014048
-0.014048
-0.014048
0.002066
-0.005991
0.010122
-0.005991
0.018179
0.018179
0.034292
0.026235
0.010122
0.018179
0.034292
-0.005991
0.002066
0.034292
0.018179
0.026235
0.026235
0.010122
0.010122
-0.005991
-0.005991
0.018179
0.042349
-0.005991
0.010122
0.010122
-0.005991
-0.078501
-0.263804
-0.376597
-0.457163
-0.416880
-0.392710
-0.392710
-0.400766
-0.328257
-0.320200
-0.255747
-0.207407
-0.151011
-0.134897
-0.086557
-0.054331
-0.054331
-0.005991
-0.030161
0.010122
-0.005991
0.002066
-0.014048
0.034292
-0.014048
0.018179
0.010122
-0.005991
0.010122
-0.022104
-0.030161
-0.022104
0.002066
0.026235
0.026235
0.026235
0.010122
-0.005991
0.018179
-0.030161
-0.005991
0.010122
-0.005991
0.002066
-0.030161
0.002066
0.034292
-0.022104
-0.005991
-0.022104
-0.005991
-0.005991
-0.054331
-0.014048
-0.014048
-0.046274
-0.014048
-0.046274
-0.005991
-0.014048
-0.054331
0.010122
-0.014048
0.010122
0.106802
0.243765
0.404898
0.429068
0.396841
0.404898
0.380728
0.364614
0.340444
0.300161
0.235708
0.211538
0.139028
0.147085
0.114859
0.050405
0.058462
0.042349
0.010122
0.042349
-0.038218
-0.022104
-0.030161
-0.014048
-0.030161
-0.030161
-0.005991
0.034292
-0.054331
-0.005991
-0.038218
-0.005991
-0.046274
-0.005991
0.002066
0.002066
-0.005991
-0.005991
-0.046274
0.018179
-0.038218
0.018179
0.018179
-0.030161
0.018179
0.050405
0.203482
0.243765
0.235708
0.235708
0.211538
0.147085
0.114859
0.090689
0.098745
0.042349
0.050405
0.034292
0.002066
0.042349
0.010122
0.018179
0.010122
0.002066
-0.126841
-0.320200
-0.392710
-0.432993
-0.416880
-0.408823
-0.416880
-0.392710
-0.376597
-0.304087
-0.239634
-0.191294
-0.126841
-0.151011
-0.078501
-0.086557
-0.094614
-0.046274
0.002066
-0.014048
-0.014048
0.026235
0.010122
-0.030161
0.002066
0.034292
0.010122
0.002066
0.034292
0.010122
0.026235
0.002066
0.026235
-0.014048
-0.005991
-0.014048
0.002066
-0.005991
-0.030161
-0.005991
0.002066
0.018179
0.018179
-0.030161
-0.022104
-0.030161
-0.030161
-0.005991
0.002066
-0.022104
-0.014048
-0.005991
-0.038218
-0.038218
-0.022104
-0.030161
-0.022104
-0.046274
-0.022104
-0.014048
-0.005991
-0.005991
-0.030161
-0.005991
0.147085
0.284048
0.364614
0.412954
0.388784
0.372671
0.364614
0.356558
0.332388
0.284048
0.235708
0.171255
0.122915
0.106802
0.082632
0.090689
0.050405
0.002066
0.002066
0.018179
-0.005991
-0.022104
-0.022104
0.002066
-0.014048
-0.022104
-0.005991
-0.022104
-0.038218
-0.046274
0.002066
-0.030161
-0.005991
0.002066
-0.022104
0.018179
-0.014048
-0.014048
-0.005991
-0.022104
0.010122
-0.014048
-0.005991
0.018179
-0.022104
0.010122
0.034292
0.010122
0.010122
0.026235
0.010122
0.026235
-0.022104
0.018179
0.018179
-0.014048
0.010122
0.018179
0.010122
0.026235
-0.005991
0.018179
-0.005991
0.002066
-0.167124
-0.312143
-0.416880
-0.457163
-0.416880
-0.368540
-0.360483
-0.223520
-0.151011
-0.118784
-0.046274
-0.014048
-0.022104
-0.030161
-0.014048
-0.014048
-0.030161
-0.022104
-0.014048
-0.005991
-0.005991
0.018179
0.002066
-0.022104
0.002066
0.010122
0.050405
-0.005991
-0.005991
0.026235
-0.014048
0.010122
0.034292
0.018179
0.034292
0.026235
0.010122
-0.005991
-0.005991
-0.014048
-0.014048
-0.022104
-0.030161
-0.046274
-0.005991
-0.005991
0.002066
-0.014048
-0.014048
-0.022104
-0.030161
-0.022104
-0.005991
-0.022104
0.002066
-0.022104
-0.030161
-0.022104
-0.022104
-0.038218
-0.005991
-0.030161
-0.014048
0.002066
0.163198
0.308218
0.388784
0.412954
0.388784
0.364614
0.364614
0.372671
0.340444
0.292105
0.219595
0.179312
0.130972
0.098745
0.082632
0.082632
0.050405
0.050405
0.026235
0.050405
-0.038218
-0.022104
-0.022104
-0.022104
0.010122
-0.005991
-0.038218
-0.005991
-0.014048
-0.022104
0.018179
-0.014048
-0.005991
-0.014048
-0.014048
-0.014048
-0.030161
0.002066
0.010122
0.010122
-0.022104
0.010122
-0.022104
0.002066
0.010122
0.010122
0.026235
0.010122
0.010122
0.010122
0.042349
0.010122
0.010122
0.042349
0.002066
0.010122
-0.005991
-0.030161
0.034292
0.018179
0.026235
0.026235
-0.005991
-0.014048
-0.191294
-0.320200
-0.408823
-0.400766
-0.416880
-0.400766
-0.392710
-0.400766
-0.336313
-0.336313
-0.239634
-0.167124
-0.183237
-0.110727
-0.070444
-0.078501
-0.078501
-0.070444
-0.030161
-0.030161
-0.005991
-0.005991
-0.022104
-0.005991
-0.030161
0.010122
0.010122
0.010122
-0.005991
-0.022104
-0.062388
-0.005991
0.002066
0.010122
0.034292
0.139028
0.219595
0.251821
0.235708
0.211538
0.163198
0.106802
0.058462
0.042349
0.034292
0.002066
0.010122
-0.022104
-0.030161
0.002066
-0.030161
-0.014048
0.018179
-0.005991
-0.030161
-0.005991
-0.005991
-0.046274
-0.014048
-0.038218
-0.014048
0.002066
-0.046274
-0.005991
0.155142
0.324331
0.404898
0.396841
0.372671
0.412954
0.356558
0.356558
0.340444
0.284048
0.235708
0.171255
0.155142
0.114859
0.058462
0.082632
0.066519
0.042349
-0.005991
-0.005991
-0.038218
0.018179
-0.022104
-0.022104
-0.038218
-0.030161
-0.014048
-0.014048
0.018179
-0.038218
-0.038218
-0.022104
-0.014048
0.002066
-0.022104
-0.038218
-0.014048
-0.005991
0.002066
-0.005991
-0.005991
0.042349
-0.005991
0.042349
0.018179
0.010122
0.018179
0.042349
0.034292
0.026235
0.026235
0.002066
0.002066
0.026235
0.026235
-0.005991
0.034292
0.058462
