-2.452440
-2.855272
-1.461474
-0.760546
-0.389940
-0.156298
-0.107958
-0.043505
-0.003222
-0.019335
-0.019335
-0.011278
-0.019335
0.004835
-0.019335
-0.035448
-0.011278
-0.003222
-0.027392
-0.003222
-0.019335
0.029005
0.012892
0.004835
-0.011278
-0.043505
-0.003222
-0.011278
-0.019335
-0.003222
0.012892
-0.019335
-0.019335
-0.035448
0.165968
0.391554
0.504347
0.528517
0.536573
0.536573
0.576857
0.472120
0.496290
0.480177
0.472120
0.464064
0.415724
0.327101
0.294874
0.214308
0.222364
0.206251
0.165968
0.165968
0.157911
0.093458
0.117628
0.053175
0.069288
0.045118
0.020948
0.004835
-0.019335
0.012892
0.012892
-0.043505
0.004835
0.037062
-0.003222
0.004835
0.029005
0.061232
0.037062
0.053175
0.061232
0.085401
0.077345
0.101515
0.085401
0.077345
0.101515
0.085401
0.077345
0.061232
0.061232
0.085401
0.069288
0.061232
0.077345
0.061232
0.085401
0.061232
0.029005
0.061232
0.029005
0.012892
-0.172411
-0.389940
-0.599413
-0.679979
-0.615526
-0.518847
-0.365770
-0.365770
-0.357714
-0.333544
-0.317431
-0.317431
-0.438280
-0.438280
-0.406054
-0.341601
-0.309374
-0.261034
-0.228808
-0.164354
-0.196581
-0.172411
-0.132128
-0.132128
-0.083788
-0.067675
-0.067675
0.004835
-0.003222
-0.003222
-0.019335
-0.027392
0.020948
-0.003222
0.004835
-0.011278
-0.003222
-0.019335
0.012892
-0.043505
-0.027392
0.012892
0.012892
0.012892
-0.027392
-0.019335
-0.027392
0.004835
-0.027392
-0.011278
-0.043505
-0.011278
0.012892
-0.027392
-0.035448
-0.027392
-0.003222
-0.003222
0.004835
-0.011278
-0.027392
-0.051561
-0.035448
-0.035448
-0.011278
-0.003222
0.133741
0.327101
0.439894
0.464064
0.512403
0.512403
0.512403
0.456007
0.415724
0.431837
0.407667
0.375441
0.359327
0.294874
0.230421
0.198194
0.214308
0.174024
0.109571
0.109571
0.101515
0.101515
0.061232
0.061232
0.061232
-0.027392
-0.011278
0.004835
-0.019335
0.029005
0.004835
-0.027392
-0.019335
-0.003222
-0.019335
0.004835
-0.003222
0.037062
0.029005
0.029005
0.020948
0.029005
0.045118
0.045118
0.045118
0.045118
0.029005
0.053175
0.085401
0.053175
0.037062
0.069288
0.020948
0.061232
0.053175
0.061232
0.037062
0.004835
-0.019335
0.020948
0.020948
-0.003222
0.037062
0.020948
0.020948
-0.003222
-0.212694
-0.341601
-0.373827
-0.454393
-0.478563
-0.438280
-0.381884
-0.397997
-0.406054
-0.389940
-0.341601
-0.236864
-0.228808
-0.180468
-0.172411
-0.132128
-0.116015
-0.099901
-0.067675
-0.067675
-0.043505
-0.027392
-0.019335
0.004835
-0.027392
-0.003222
0.004835
-0.003222
0.012892
-0.011278
0.020948
0.149855
0.214308
0.238478
0.230421
0.206251
0.149855
0.085401
0.077345
0.037062
0.020948
0.012892
0.012892
-0.003222
0.004835
-0.035448
0.012892
-0.019335
-0.011278
-0.027392
-0.019335
-0.003222
-0.019335
-0.051561
-0.003222
0.004835
-0.035448
-0.003222
-0.019335
-0.011278
-0.003222
-0.003222
-0.019335
0.004835
0.012892
0.165968
0.359327
0.383497
0.439894
0.431837
0.399610
0.359327
0.391554
0.367384
0.294874
0.254591
0.206251
0.141798
0.093458
0.101515
0.053175
0.037062
0.029005
0.020948
-0.003222
0.004835
0.004835
-0.011278
-0.011278
-0.011278
-0.027392
-0.011278
-0.027392
0.004835
0.012892
0.004835
-0.011278
-0.003222
0.012892
0.020948
0.020948
0.012892
0.004835
0.029005
0.020948
0.012892
0.020948
0.029005
0.037062
0.020948
0.045118
0.045118
0.004835
0.037062
0.012892
0.020948
-0.003222
0.037062
0.020948
-0.019335
0.029005
0.045118
0.020948
-0.019335
0.053175
0.020948
-0.003222
0.004835
0.029005
-0.116015
-0.309374
-0.381884
-0.397997
-0.414110
-0.397997
-0.406054
-0.406054
-0.365770
-0.309374
-0.236864
-0.204638
-0.124071
-0.148241
-0.099901
-0.043505
-0.075731
-0.091845
-0.043505
0.004835
0.004835
0.012892
0.012892
0.012892
0.037062
-0.011278
0.012892
-0.027392
0.020948
0.020948
0.029005
-0.019335
0.004835
-0.003222
-0.011278
0.029005
0.012892
-0.027392
0.004835
0.004835
-0.003222
0.012892
-0.011278
-0.003222
0.004835
-0.003222
-0.027392
-0.011278
-0.019335
-0.019335
-0.011278
-0.027392
-0.003222
-0.043505
-0.019335
0.101515
0.198194
0.214308
0.206251
0.190138
0.101515
0.069288
0.037062
0.029005
0.141798
0.286817
0.375441
0.423780
0.383497
0.375441
0.375441
0.343214
0.302931
0.278761
0.182081
0.206251
0.109571
0.109571
0.077345
0.093458
0.061232
0.045118
0.004835
-0.003222
-0.019335
-0.035448
-0.043505
-0.027392
-0.011278
-0.027392
-0.003222
-0.027392
-0.035448
-0.003222
-0.051561
0.004835
-0.035448
0.029005
-0.011278
-0.003222
-0.027392
0.012892
-0.003222
-0.027392
0.004835
0.037062
-0.003222
0.029005
0.004835
0.012892
0.004835
0.069288
0.029005
0.012892
0.045118
0.053175
0.012892
-0.027392
0.020948
0.029005
0.012892
-0.011278
-0.019335
0.004835
0.029005
0.012892
0.020948
0.037062
-0.099901
-0.244921
-0.341601
-0.414110
-0.406054
-0.414110
-0.422167
-0.381884
-0.389940
-0.285204
-0.269091
-0.180468
-0.164354
-0.124071
-0.107958
-0.099901
-0.075731
-0.051561
0.012892
-0.035448
0.012892
0.012892
0.012892
0.037062
0.004835
-0.011278
-0.011278
-0.011278
0.012892
0.037062
-0.011278
0.004835
-0.035448
-0.003222
-0.019335
-0.027392
-0.003222
-0.003222
-0.011278
-0.027392
-0.027392
-0.011278
-0.011278
-0.003222
-0.011278
-0.035448
-0.035448
0.004835
-0.027392
-0.011278
-0.011278
-0.011278
-0.035448
-0.035448
-0.035448
-0.051561
-0.011278
-0.027392
-0.027392
-0.035448
-0.027392
-0.027392
-0.035448
-0.043505
0.045118
0.206251
0.351271
0.335157
0.407667
0.351271
0.343214
0.335157
0.319044
0.262648
0.222364
0.133741
0.125685
0.053175
0.029005
0.061232
0.020948
-0.011278
-0.035448
0.093458
0.174024
0.182081
0.198194
0.182081
0.157911
0.117628
0.101515
0.020948
0.045118
0.012892
0.004835
0.012892
-0.027392
-0.003222
-0.003222
-0.011278
0.004835
-0.043505
-0.003222
-0.003222
-0.011278
-0.011278
0.012892
-0.003222
-0.003222
0.020948
-0.011278
0.012892
0.020948
0.020948
0.004835
-0.003222
-0.003222
0.004835
0.020948
-0.003222
0.020948
0.053175
0.020948
0.045118
0.020948
0.053175
0.012892
0.012892
-0.051561
-0.244921
-0.349657
-0.397997
-0.365770
-0.414110
-0.389940
-0.365770
-0.365770
-0.293261
-0.236864
-0.140184
-0.156298
-0.091845
-0.116015
-0.083788
-0.075731
-0.059618
-0.019335
0.004835
-0.043505
-0.011278
0.012892
0.004835
0.012892
-0.027392
0.045118
0.029005
-0.019335
0.020948
0.004835
-0.011278
0.004835
-0.011278
0.004835
0.012892
0.012892
0.020948
-0.003222
-0.043505
-0.027392
-0.019335
-0.003222
-0.027392
0.004835
-0.011278
-0.011278
-0.043505
-0.003222
0.020948
-0.011278
-0.043505
-0.027392
-0.027392
0.012892
-0.043505
0.012892
-0.011278
0.037062
-0.003222
0.004835
-0.035448
0.004835
-0.011278
0.061232
0.246534
0.343214
0.343214
0.343214
0.367384
0.375441
0.383497
0.319044
0.246534
0.214308
0.190138
0.149855
0.149855
0.069288
0.061232
0.053175
0.045118
0.012892
0.012892
-0.019335
-0.011278
-0.019335
-0.027392
-0.019335
-0.019335
-0.003222
0.004835
-0.059618
-0.011278
-0.019335
-0.003222
-0.035448
-0.043505
0.020948
-0.019335
-0.027392
-0.027392
-0.051561
-0.011278
-0.011278
0.020948
0.077345
0.206251
0.206251
0.230421
0.222364
0.198194
0.149855
0.085401
0.109571
0.061232
0.029005
0.077345
0.045118
0.037062
0.004835
-0.027392
0.020948
-0.011278
-0.019335
0.004835
-0.003222
0.004835
-0.091845
-0.228808
-0.349657
-0.397997
-0.397997
-0.406054
-0.373827
-0.406054
-0.301317
-0.333544
-0.220751
-0.164354
-0.140184
-0.132128
-0.116015
-0.083788
-0.059618
-0.027392
-0.027392
-0.019335
-0.011278
0.004835
0.037062
0.012892
0.037062
0.029005
-0.003222
0.020948
-0.003222
-0.011278
0.004835
-0.035448
0.053175
0.004835
0.004835
-0.003222
0.012892
-0.027392
-0.011278
-0.027392
-0.043505
0.012892
0.004835
-0.027392
-0.027392
-0.027392
-0.019335
-0.067675
-0.003222
-0.011278
-0.043505
-0.019335
-0.043505
-0.011278
-0.003222
-0.043505
-0.059618
-0.051561
-0.027392
-0.035448
-0.011278
0.029005
-0.043505
-0.003222
0.069288
0.214308
0.335157
0.343214
0.375441
0.375441
0.375441
0.319044
0.335157
0.230421
0.174024
0.133741
0.133741
0.141798
0.093458
0.077345
0.029005
0.029005
0.020948
-0.019335
-0.011278
0.004835
-0.051561
-0.059618
-0.035448
-0.019335
0.004835
-0.019335
-0.027392
-0.019335
-0.035448
-0.011278
-0.003222
-0.027392
0.004835
-0.019335
0.012892
0.012892
-0.019335
-0.011278
-0.003222
-0.011278
0.004835
-0.011278
-0.003222
0.012892
-0.003222
0.012892
-0.011278
0.020948
0.012892
0.012892
-0.003222
-0.011278
0.004835
-0.003222
0.020948
0.045118
0.037062
0.004835
-0.003222
0.037062
0.029005
0.020948
-0.099901
-0.261034
-0.397997
-0.406054
-0.406054
-0.414110
-0.414110
-0.373827
-0.220751
-0.091845
-0.019335
0.029005
0.061232
0.069288
0.012892
0.029005
0.020948
0.029005
0.020948
0.020948
-0.011278
0.029005
0.020948
0.037062
-0.043505
0.020948
-0.003222
0.029005
0.004835
0.012892
0.004835
0.004835
-0.019335
0.020948
-0.019335
-0.003222
0.004835
0.004835
-0.003222
0.012892
0.020948
-0.011278
0.020948
-0.027392
-0.027392
-0.011278
-0.043505
0.004835
-0.003222
-0.051561
-0.027392
-0.043505
-0.027392
-0.003222
-0.035448
-0.019335
-0.059618
-0.027392
-0.043505
0.012892
-0.011278
-0.035448
-0.019335
-0.003222
0.085401
0.254591
0.367384
0.391554
0.367384
0.375441
0.351271
0.383497
0.294874
0.230421
0.190138
0.157911
0.165968
0.101515
0.045118
0.077345
0.029005
-0.003222
0.004835
-0.011278
-0.019335
-0.035448
-0.027392
-0.011278
-0.011278
-0.051561
-0.019335
-0.027392
0.004835
-0.027392
-0.043505
-0.035448
-0.011278
-0.011278
0.004835
-0.019335
-0.011278
-0.003222
0.004835
0.012892
-0.003222
0.029005
-0.011278
0.004835
-0.003222
-0.003222
-0.003222
0.012892
0.029005
0.012892
0.004835
-0.003222
0.004835
-0.003222
-0.003222
0.029005
0.012892
-0.003222
-0.011278
0.004835
0.012892
-0.003222
0.029005
-0.003222
-0.099901
-0.293261
-0.381884
-0.430224
-0.349657
-0.349657
-0.430224
-0.357714
-0.357714
-0.285204
-0.204638
-0.156298
-0.124071
-0.116015
-0.116015
-0.083788
-0.051561
-0.035448
-0.027392
-0.051561
0.012892
0.029005
0.004835
0.012892
-0.027392
0.029005
0.012892
-0.011278
0.020948
0.012892
-0.003222
-0.027392
-0.011278
0.061232
0.214308
0.238478
0.198194
0.182081
0.157911
0.101515
0.045118
-0.003222
0.012892
0.012892
0.029005
0.012892
0.020948
-0.043505
-0.043505
-0.011278
-0.043505
-0.003222
-0.003222
-0.019335
0.004835
-0.019335
-0.011278
-0.019335
-0.035448
-0.027392
-0.043505
-0.027392
-0.019335
-0.019335
0.109571
0.262648
0.343214
0.375441
0.367384
0.351271
0.343214
0.351271
0.302931
0.246534
0.182081
0.141798
0.149855
0.117628
0.069288
0.069288
0.020948
0.004835
0.012892
-0.019335
-0.011278
0.012892
-0.019335
0.012892
-0.051561
-0.027392
0.004835
-0.011278
-0.003222
-0.019335
-0.019335
0.012892
-0.011278
-0.027392
-0.019335
-0.035448
0.004835
-0.011278
-0.011278
-0.027392
0.037062
-0.027392
0.012892
-0.011278
0.020948
0.037062
0.004835
-0.011278
-0.003222
0.012892
-0.003222
-0.003222
-0.003222
0.004835
-0.027392
0.012892
0.004835
0.012892
0.053175
0.012892
0.012892
0.020948
0.029005
0.004835
-0.164354
-0.309374
-0.365770
-0.414110
-0.373827
-0.389940
-0.414110
-0.365770
-0.333544
-0.244921
-0.196581
-0.164354
-0.132128
-0.075731
-0.083788
-0.075731
-0.043505
-0.027392
-0.035448
0.012892
-0.019335
0.012892
0.012892
0.020948
-0.019335
0.004835
-0.011278
0.012892
0.029005
0.029005
-0.019335
-0.003222
-0.011278
-0.003222
0.004835
0.037062
-0.011278
-0.027392
-0.019335
-0.027392
-0.003222
-0.027392
0.029005
-0.027392
-0.019335
-0.035448
-0.019335
-0.027392
-0.059618
-0.019335
-0.019335
-0.019335
-0.051561
-0.051561
-0.019335
-0.035448
-0.035448
-0.051561
-0.035448
-0.051561
-0.043505
0.029005
0.125685
0.222364
0.383497
0.512403
0.520460
0.536573
0.504347
0.439894
0.375441
0.383497
0.319044
0.270704
0.206251
0.190138
0.149855
0.117628
0.085401
0.053175
0.045118
0.020948
-0.035448
-0.019335
-0.043505
-0.051561
-0.051561
-0.027392
-0.035448
-0.035448
-0.027392
-0.027392
-0.035448
-0.011278
-0.019335
-0.035448
-0.011278
-0.011278
-0.019335
0.004835
0.012892
0.004835
0.012892
0.020948
0.012892
0.004835
0.020948
-0.003222
-0.003222
0.020948
0.020948
-0.019335
-0.019335
-0.027392
-0.019335
-0.011278
-0.003222
-0.003222
0.012892
-0.003222
0.004835
-0.003222
0.012892
0.037062
0.012892
-0.003222
-0.019335
-0.043505
-0.140184
-0.325487
-0.397997
-0.389940
-0.414110
-0.397997
-0.389940
-0.381884
-0.349657
-0.252977
-0.188524
-0.148241
-0.140184
-0.124071
-0.124071
-0.075731
-0.043505
-0.051561
-0.011278
-0.027392
0.012892
-0.035448
0.012892
-0.003222
0.012892
0.004835
0.004835
-0.019335
-0.003222
0.004835
-0.035448
0.012892
0.020948
-0.003222
0.020948
-0.035448
-0.019335
-0.027392
-0.035448
0.012892
-0.019335
-0.011278
-0.035448
-0.027392
-0.011278
-0.035448
-0.043505
-0.019335
-0.027392
-0.019335
-0.011278
-0.035448
-0.011278
-0.027392
-0.043505
-0.019335
-0.035448
-0.027392
-0.019335
0.012892
-0.051561
-0.043505
-0.043505
-0.019335
0.149855
0.286817
0.367384
0.359327
0.359327
0.319044
0.335157
0.359327
0.294874
0.214308
0.214308
0.149855
0.101515
0.037062
0.045118
0.037062
0.029005
-0.003222
-0.043505
-0.043505
-0.003222
0.117628
0.182081
0.206251
0.157911
0.141798
0.109571
0.053175
0.061232
0.045118
-0.011278
-0.003222
0.020948
0.012892
-0.027392
-0.027392
-0.027392
-0.011278
-0.003222
0.020948
-0.003222
-0.019335
-0.003222
-0.011278
0.004835
0.012892
0.012892
-0.003222
0.020948
0.004835
0.004835
-0.011278
0.020948
0.029005
-0.003222
0.012892
0.004835
-0.003222
0.037062
-0.003222
0.012892
-0.011278
0.020948
-0.035448
-0.220751
-0.301317
-0.414110
-0.397997
-0.406054
-0.373827
-0.381884
-0.333544
-0.293261
-0.236864
-0.188524
-0.164354
-0.132128
-0.099901
-0.091845
-0.059618
-0.059618
-0.043505
-0.003222
-0.027392
-0.019335
-0.011278
-0.019335
-0.011278
-0.003222
-0.003222
-0.019335
-0.003222
-0.011278
0.029005
-0.003222
-0.011278
-0.027392
-0.011278
0.004835
0.004835
-0.011278
0.012892
0.004835
-0.003222
0.045118
-0.035448
-0.011278
-0.011278
-0.019335
-0.019335
-0.003222
-0.027392
-0.035448
-0.027392
-0.027392
-0.019335
-0.035448
-0.003222
-0.059618
-0.027392
-0.003222
0.004835
-0.003222
-0.059618
-0.019335
-0.011278
-0.011278
0.012892
0.157911
0.286817
0.391554
0.391554
0.351271
0.343214
0.335157
0.343214
0.286817
0.206251
0.198194
0.133741
0.125685
0.077345
0.029005
0.037062
0.053175
0.020948
0.004835
-0.051561
0.012892
-0.035448
-0.019335
0.004835
-0.019335
-0.035448
-0.019335
-0.003222
-0.019335
-0.035448
-0.003222
-0.011278
-0.003222
-0.003222
0.012892
0.004835
0.020948
-0.019335
0.020948
-0.035448
-0.027392
-0.011278
0.020948
0.004835
-0.035448
-0.027392
-0.027392
-0.019335
-0.019335
-0.027392
0.077345
0.174024
0.254591
0.254591
0.246534
0.206251
0.165968
0.109571
0.077345
0.029005
0.053175
0.037062
0.020948
-0.011278
-0.204638
-0.309374
-0.414110
-0.406054
-0.397997
-0.406054
-0.373827
-0.381884
-0.325487
-0.236864
-0.220751
-0.172411
-0.107958
-0.116015
-0.116015
-0.091845
-0.051561
-0.043505
-0.011278
0.012892
0.029005
-0.019335
-0.019335
-0.011278
-0.003222
0.012892
-0.019335
-0.019335
-0.019335
-0.035448
-0.011278
-0.027392
-0.011278
-0.019335
-0.027392
-0.027392
-0.019335
-0.003222
-0.003222
-0.011278
0.004835
0.004835
-0.043505
-0.003222
-0.019335
-0.043505
-0.019335
-0.011278
-0.019335
-0.011278
-0.011278
-0.019335
-0.011278
-0.019335
-0.051561
-0.011278
-0.043505
-0.043505
-0.019335
0.012892
-0.051561
-0.019335
-0.027392
0.004835
0.182081
0.286817
0.335157
0.367384
0.343214
0.335157
0.359327
0.319044
0.278761
0.206251
0.206251
0.165968
0.101515
0.093458
0.045118
0.069288
0.012892
0.004835
-0.003222
-0.027392
-0.027392
-0.051561
-0.019335
-0.043505
-0.027392
-0.011278
-0.011278
-0.011278
-0.011278
-0.011278
-0.059618
-0.011278
0.012892
-0.027392
0.012892
0.012892
0.004835
0.012892
-0.003222
0.004835
-0.011278
0.004835
-0.035448
-0.003222
0.012892
0.012892
0.020948
0.012892
0.020948
0.012892
-0.003222
0.029005
0.029005
0.004835
-0.003222
0.012892
-0.011278
0.012892
0.012892
0.004835
0.029005
0.020948
-0.019335
-0.051561
-0.220751
-0.373827
-0.357714
-0.414110
-0.373827
-0.365770
-0.397997
-0.349657
-0.341601
-0.228808
-0.196581
-0.091845
0.061232
0.109571
0.125685
0.157911
0.077345
0.069288
0.085401
0.053175
0.053175
0.037062
0.020948
0.037062
0.020948
0.020948
-0.003222
0.004835
-0.019335
-0.035448
-0.003222
0.012892
-0.043505
0.004835
-0.019335
-0.043505
-0.011278
0.004835
-0.003222
-0.051561
-0.011278
0.004835
-0.027392
-0.043505
-0.027392
-0.019335
-0.011278
-0.019335
-0.011278
-0.043505
-0.043505
0.004835
-0.051561
-0.043505
0.012892
-0.011278
-0.019335
0.012892
-0.011278
-0.011278
0.004835
-0.003222
0.053175
0.069288
0.206251
0.327101
0.359327
0.383497
0.351271
0.359327
0.375441
0.310987
0.270704
0.198194
0.174024
0.157911
0.125685
0.061232
0.077345
0.077345
0.045118
0.004835
-0.003222
-0.019335
-0.019335
-0.027392
-0.027392
-0.027392
-0.035448
-0.019335
-0.043505
-0.019335
-0.043505
-0.011278
-0.043505
-0.011278
0.012892
-0.051561
-0.019335
0.020948
0.020948
0.020948
-0.003222
0.037062
-0.003222
0.037062
0.020948
0.045118
0.012892
0.037062
-0.011278
0.020948
0.029005
0.029005
0.004835
0.004835
-0.003222
0.029005
0.020948
0.004835
-0.011278
0.012892
0.004835
0.029005
0.029005
-0.011278
-0.003222
-0.059618
-0.244921
-0.373827
-0.422167
-0.373827
-0.365770
-0.381884
-0.357714
-0.317431
-0.293261
-0.212694
-0.188524
-0.164354
-0.140184
-0.091845
-0.091845
-0.091845
-0.075731
-0.027392
-0.019335
-0.011278
-0.019335
0.061232
-0.035448
0.020948
0.020948
-0.003222
0.020948
-0.011278
0.020948
-0.003222
-0.027392
0.020948
-0.035448
-0.051561
-0.019335
-0.035448
-0.035448
-0.027392
-0.035448
-0.019335
0.149855
0.206251
0.214308
0.174024
0.206251
0.133741
0.053175
0.085401
0.045118
0.012892
0.004835
0.004835
0.004835
-0.003222
-0.011278
-0.035448
0.012892
-0.011278
-0.027392
-0.019335
-0.051561
-0.067675
-0.035448
0.037062
0.206251
0.310987
0.383497
0.375441
0.375441
0.375441
0.351271
0.294874
0.270704
0.206251
0.165968
0.125685
0.125685
0.053175
0.101515
0.061232
0.045118
0.012892
-0.019335
-0.003222
-0.035448
-0.027392
-0.019335
-0.059618
-0.051561
-0.003222
-0.027392
-0.003222
0.020948
-0.019335
-0.027392
-0.027392
-0.019335
-0.019335
-0.003222
-0.035448
0.012892
-0.011278
-0.019335
-0.011278
-0.019335
-0.027392
0.004835
0.029005
0.020948
-0.011278
0.037062
-0.011278
0.037062
-0.003222
0.004835
0.012892
-0.019335
0.012892
-0.003222
-0.011278
0.012892
-0.003222
-0.003222
-0.011278
-0.003222
-0.011278
-0.019335
-0.091845
-0.252977
-0.381884
-0.397997
-0.389940
-0.389940
-0.373827
-0.414110
-0.341601
-0.261034
-0.228808
-0.156298
-0.164354
-0.075731
-0.083788
-0.067675
-0.059618
-0.043505
-0.035448
-0.011278
0.004835
0.004835
0.004835
-0.011278
0.029005
0.037062
-0.011278
-0.003222
-0.035448
-0.035448
0.004835
-0.011278
-0.003222
-0.019335
-0.011278
-0.011278
-0.035448
-0.003222
0.004835
-0.003222
-0.011278
-0.035448
-0.011278
-0.019335
-0.011278
-0.019335
-0.035448
-0.035448
-0.027392
-0.043505
-0.003222
-0.027392
0.004835
-0.019335
-0.059618
-0.019335
-0.043505
-0.027392
-0.027392
-0.019335
-0.043505
-0.043505
-0.043505
0.020948
0.230421
0.407667
0.584913
0.576857
0.568800
0.536573
0.464064
0.439894
0.391554
0.278761
0.230421
0.174024
0.149855
0.093458
0.061232
0.085401
0.037062
0.020948
-0.011278
-0.019335
-0.011278
-0.027392
-0.019335
-0.043505
-0.051561
-0.027392
-0.035448
-0.035448
-0.011278
-0.035448
0.037062
-0.019335
-0.035448
-0.043505
-0.019335
-0.003222
-0.003222
-0.003222
0.012892
-0.019335
-0.011278
-0.003222
-0.027392
-0.019335
-0.019335
0.012892
0.012892
-0.019335
-0.027392
0.020948
-0.003222
0.012892
0.004835
0.020948
0.004835
0.012892
0.029005
0.012892
0.012892
0.004835
-0.003222
0.029005
-0.011278
0.029005
-0.099901
-0.269091
-0.422167
-0.381884
-0.357714
-0.357714
-0.389940
-0.414110
-0.333544
-0.252977
-0.228808
-0.140184
-0.172411
-0.132128
-0.116015
-0.091845
-0.067675
-0.027392
-0.019335
-0.011278
0.020948
0.012892
0.004835
-0.035448
0.020948
-0.011278
-0.011278
-0.011278
-0.019335
-0.003222
-0.043505
-0.003222
-0.027392
0.004835
-0.027392
-0.027392
-0.019335
-0.019335
0.012892
0.004835
-0.035448
-0.011278
-0.003222
-0.011278
-0.035448
-0.011278
-0.019335
-0.027392
-0.043505
-0.051561
-0.019335
-0.019335
-0.043505
-0.059618
-0.011278
-0.035448
-0.019335
-0.019335
0.004835
-0.035448
-0.027392
-0.019335
0.004835
-0.051561
0.085401
0.238478
0.351271
0.367384
0.383497
0.359327
0.343214
0.375441
0.343214
0.238478
0.230421
0.125685
0.133741
0.085401
0.053175
0.069288
0.053175
0.029005
-0.011278
0.012892
-0.019335
-0.027392
-0.011278
-0.019335
0.004835
-0.027392
-0.035448
-0.035448
-0.027392
0.045118
0.149855
0.222364
0.206251
0.182081
0.165968
0.157911
0.125685
0.093458
0.045118
0.037062
0.020948
0.012892
0.053175
0.020948
0.004835
0.004835
0.004835
-0.011278
0.020948
0.037062
0.020948
-0.003222
0.037062
0.029005
0.012892
0.020948
0.037062
0.004835
-0.011278
0.012892
0.012892
0.004835
0.012892
0.004835
-0.083788
-0.269091
-0.397997
-0.389940
-0.430224
-0.406054
-0.357714
-0.357714
-0.325487
-0.269091
-0.196581
-0.172411
-0.124071
-0.107958
-0.067675
-0.075731
-0.051561
-0.019335
0.012892
-0.027392
-0.003222
-0.011278
0.004835
0.012892
-0.003222
-0.003222
0.029005
-0.003222
0.020948
0.020948
0.069288
0.045118
-0.003222
0.004835
-0.043505
0.004835
-0.003222
-0.019335
-0.019335
-0.003222
-0.011278
-0.011278
-0.059618
-0.011278
0.004835
-0.011278
-0.035448
-0.027392
-0.051561
-0.043505
-0.011278
-0.003222
-0.003222
-0.027392
0.012892
0.012892
0.004835
0.004835
-0.011278
-0.027392
-0.027392
-0.011278
-0.011278
-0.003222
0.077345
0.246534
0.359327
0.327101
0.375441
0.343214
0.359327
0.335157
0.319044
0.270704
0.165968
0.165968
0.133741
0.117628
0.061232
0.069288
0.053175
0.029005
0.020948
-0.027392
-0.019335
-0.043505
-0.027392
0.012892
-0.011278
-0.035448
-0.027392
-0.035448
0.045118
0.004835
-0.019335
0.004835
0.004835
-0.019335
0.004835
-0.027392
-0.003222
-0.011278
-0.003222
-0.027392
-0.019335
-0.011278
-0.003222
-0.011278
0.012892
0.012892
0.012892
0.012892
0.004835
0.012892
-0.011278
0.029005
-0.019335
-0.003222
0.029005
0.174024
0.214308
0.238478
0.190138
0.246534
0.157911
0.125685
0.069288
0.004835
-0.099901
-0.269091
-0.349657
-0.365770
-0.389940
-0.365770
-0.389940
-0.406054
-0.341601
-0.252977
-0.220751
-0.140184
-0.124071
-0.107958
-0.075731
-0.067675
-0.059618
-0.059618
-0.027392
-0.019335
0.020948
0.004835
0.012892
0.020948
0.012892
0.012892
0.053175
0.004835
-0.027392
0.029005
0.004835
0.029005
-0.011278
0.004835
0.004835
-0.019335
-0.019335
-0.011278
-0.051561
0.029005
0.004835
-0.011278
-0.019335
-0.043505
-0.035448
-0.019335
-0.011278
-0.011278
-0.019335
-0.027392
-0.035448
-0.035448
-0.003222
-0.027392
-0.003222
-0.043505
-0.011278
-0.035448
-0.027392
-0.035448
-0.043505
-0.035448
-0.051561
0.029005
0.117628
0.262648
0.383497
0.343214
0.367384
0.391554
0.310987
0.343214
0.302931
0.230421
0.190138
0.149855
0.125685
0.101515
0.069288
0.093458
0.045118
0.061232
-0.027392
0.029005
-0.035448
-0.011278
-0.027392
-0.043505
-0.035448
0.004835
0.004835
-0.003222
-0.027392
-0.019335
-0.011278
0.020948
-0.019335
-0.003222
-0.011278
0.029005
0.004835
-0.003222
-0.027392
-0.019335
-0.011278
-0.011278
0.020948
-0.027392
0.029005
0.029005
0.012892
0.029005
-0.003222
0.037062
0.053175
0.020948
0.004835
0.029005
-0.019335
0.004835
0.053175
0.020948
-0.003222
-0.011278
0.045118
0.012892
-0.003222
-0.011278
-0.172411
-0.309374
-0.397997
-0.406054
-0.406054
-0.333544
-0.397997
-0.373827
-0.301317
-0.269091
-0.212694
-0.180468
-0.132128
-0.124071
-0.140184
-0.107958
-0.083788
-0.059618
-0.011278
0.133741
0.214308
0.230421
0.214308
0.190138
0.206251
0.133741
0.125685
0.093458
0.012892
0.053175
0.037062
-0.019335
0.004835
0.012892
0.020948
0.012892
-0.003222
0.020948
-0.003222
-0.011278
0.012892
-0.003222
-0.035448
-0.051561
-0.035448
-0.003222
0.004835
-0.027392
-0.027392
-0.043505
-0.019335
0.012892
-0.035448
-0.011278
-0.011278
-0.003222
-0.019335
-0.003222
-0.019335
0.004835
-0.019335
-0.051561
-0.019335
0.012892
0.198194
0.302931
0.359327
0.359327
0.335157
0.327101
0.359327
0.335157
0.278761
0.222364
0.174024
0.125685
0.101515
0.101515
0.061232
0.061232
0.045118
0.045118
0.020948
-0.027392
0.004835
-0.035448
-0.035448
-0.011278
-0.035448
-0.027392
-0.027392
-0.027392
-0.027392
-0.043505
-0.011278
-0.011278
-0.019335
-0.043505
0.004835
-0.019335
-0.003222
-0.043505
0.020948
0.029005
-0.019335
-0.011278
0.029005
0.012892
0.029005
-0.019335
0.037062
0.020948
-0.003222
0.037062
-0.003222
0.020948
-0.003222
0.004835
0.053175
0.004835
0.029005
0.004835
-0.003222
0.020948
-0.011278
0.004835
0.020948
-0.035448
-0.164354
-0.285204
-0.381884
-0.381884
-0.373827
-0.397997
-0.406054
-0.325487
-0.317431
-0.236864
-0.180468
-0.132128
-0.140184
-0.091845
-0.059618
-0.067675
-0.027392
-0.059618
-0.019335
0.020948
0.020948
0.004835
0.012892
0.004835
0.020948
0.045118
0.004835
0.069288
-0.019335
-0.003222
0.004835
0.004835
-0.035448
-0.027392
-0.011278
-0.003222
-0.019335
-0.011278
-0.027392
-0.019335
-0.019335
-0.027392
0.101515
0.174024
0.222364
0.214308
0.174024
0.125685
0.053175
0.037062
-0.011278
-0.019335
-0.019335
-0.027392
-0.027392
-0.019335
-0.027392
-0.043505
-0.051561
-0.051561
-0.043505
-0.051561
-0.027392
0.012892
0.165968
0.286817
0.343214
0.367384
0.343214
0.367384
0.383497
0.302931
0.286817
0.206251
0.182081
0.125685
0.109571
0.093458
0.101515
0.085401
0.029005
0.029005
0.004835
-0.043505
-0.027392
-0.035448
-0.019335
-0.027392
-0.027392
-0.019335
-0.011278
0.012892
-0.003222
-0.019335
-0.011278
-0.003222
-0.043505
-0.003222
-0.019335
0.029005
-0.011278
-0.011278
-0.035448
-0.019335
0.029005
0.004835
0.004835
0.045118
0.012892
-0.003222
0.020948
-0.011278
-0.003222
0.037062
0.020948
-0.003222
0.029005
-0.011278
-0.011278
0.053175
-0.019335
0.037062
0.037062
0.004835
0.029005
0.004835
0.020948
-0.019335
-0.196581
-0.341601
-0.373827
-0.381884
-0.373827
-0.381884
-0.414110
-0.381884
-0.293261
-0.220751
-0.188524
-0.148241
-0.107958
-0.140184
-0.091845
-0.059618
-0.035448
-0.027392
-0.003222
0.020948
-0.003222
-0.003222
-0.011278
-0.003222
0.012892
0.004835
0.029005
0.004835
-0.011278
-0.011278
0.020948
-0.027392
-0.011278
-0.019335
-0.035448
-0.011278
-0.019335
0.012892
-0.011278
-0.019335
-0.011278
-0.043505
-0.011278
-0.019335
-0.011278
-0.011278
-0.019335
0.012892
-0.027392
-0.043505
-0.035448
-0.027392
-0.027392
-0.051561
-0.051561
-0.019335
-0.011278
-0.003222
-0.011278
-0.019335
-0.051561
-0.035448
-0.027392
-0.011278
0.182081
0.310987
0.375441
0.367384
0.310987
0.302931
0.359327
0.359327
0.464064
0.415724
0.431837
0.351271
0.302931
0.246534
0.149855
0.157911
0.093458
0.069288
0.029005
0.004835
-0.003222
-0.019335
-0.011278
-0.019335
-0.019335
-0.051561
-0.019335
-0.051561
-0.027392
0.004835
-0.035448
-0.019335
-0.019335
-0.011278
-0.019335
-0.019335
-0.035448
-0.027392
0.020948
0.004835
-0.003222
0.020948
0.012892
0.029005
-0.003222
0.004835
0.004835
-0.019335
0.020948
-0.003222
0.020948
-0.003222
0.020948
0.053175
0.004835
0.037062
0.004835
-0.011278
0.020948
0.012892
0.020948
0.020948
-0.019335
-0.099901
-0.228808
-0.317431
-0.365770
-0.365770
-0.406054
-0.389940
-0.373827
-0.365770
-0.269091
-0.196581
-0.228808
-0.156298
-0.124071
-0.116015
-0.075731
-0.051561
-0.035448
-0.043505
0.012892
-0.003222
-0.019335
-0.003222
0.004835
-0.019335
0.029005
0.004835
0.004835
-0.003222
0.004835
0.012892
0.012892
-0.003222
-0.011278
-0.011278
-0.011278
0.004835
0.004835
-0.043505
-0.003222
-0.003222
-0.003222
-0.035448
-0.035448
-0.003222
-0.027392
-0.003222
0.004835
-0.019335
0.004835
-0.003222
0.004835
0.004835
-0.035448
-0.051561
-0.043505
-0.019335
-0.019335
-0.003222
-0.043505
-0.019335
-0.019335
-0.035448
-0.027392
0.045118
0.214308
0.310987
0.367384
0.343214
0.343214
0.391554
0.327101
0.335157
0.262648
0.198194
0.141798
0.125685
0.101515
0.061232
0.077345
0.037062
0.020948
0.037062
-0.027392
-0.027392
-0.043505
-0.019335
-0.019335
-0.035448
-0.027392
-0.051561
-0.027392
-0.019335
-0.019335
-0.027392
-0.059618
-0.019335
-0.011278
0.117628
0.182081
0.206251
0.198194
0.182081
0.157911
0.109571
0.037062
0.077345
0.029005
-0.011278
0.029005
0.012892
0.020948
0.012892
-0.011278
0.012892
0.020948
0.012892
-0.011278
-0.003222
0.020948
-0.019335
0.004835
0.012892
-0.035448
0.012892
-0.019335
0.037062
0.012892
-0.051561
-0.196581
-0.349657
-0.349657
-0.341601
-0.389940
-0.389940
-0.389940
-0.357714
-0.301317
-0.220751
-0.164354
-0.124071
-0.132128
-0.067675
-0.067675
-0.067675
-0.027392
-0.035448
0.004835
-0.011278
-0.035448
-0.019335
-0.011278
0.037062
0.004835
-0.011278
-0.003222
0.012892
