-0.622201
-0.420785
-0.211312
-0.098519
-0.074349
-0.017953
-0.042123
-0.009896
-0.034066
-0.042123
0.030387
0.215690
0.320426
0.409049
0.489615
0.521842
0.554069
0.481559
0.521842
0.570182
0.594352
0.554069
0.497672
0.441276
0.433219
0.433219
0.392936
0.368766
0.352653
0.352653
0.312369
0.304313
0.255973
0.247916
0.215690
0.215690
0.199576
0.191520
0.175406
0.135123
0.127067
0.086783
0.094840
0.070670
0.046500
0.030387
0.038444
-0.009896
-0.009896
0.022330
0.078727
0.054557
0.086783
0.078727
0.086783
0.110953
0.110953
0.135123
0.167350
0.167350
0.167350
0.135123
0.183463
0.207633
0.183463
0.175406
0.175406
0.191520
0.183463
0.199576
0.159293
0.135123
0.094840
0.119010
0.102897
0.110953
0.102897
0.119010
0.038444
0.046500
0.054557
0.022330
-0.203256
-0.477181
-0.662484
-0.686654
-0.638314
-0.581918
-0.428842
-0.364388
-0.348275
-0.307992
-0.299935
-0.372445
-0.388558
-0.412728
-0.356332
-0.307992
-0.275765
-0.227426
-0.162972
-0.187142
-0.154916
-0.146859
-0.114633
-0.122689
-0.106576
-0.114633
-0.074349
-0.050179
-0.017953
0.006217
-0.026010
-0.001840
-0.026010
-0.001840
0.006217
0.006217
0.006217
-0.001840
-0.017953
-0.009896
0.014274
0.022330
-0.017953
-0.026010
-0.034066
-0.009896
-0.009896
0.022330
0.030387
-0.001840
-0.009896
0.006217
-0.001840
0.062614
-0.017953
-0.009896
-0.017953
-0.009896
-0.017953
-0.042123
-0.017953
-0.026010
-0.042123
-0.034066
0.030387
0.272086
0.505729
0.554069
0.554069
0.546012
0.554069
0.537955
0.529899
0.481559
0.441276
0.441276
0.425162
0.400992
0.368766
0.288199
0.215690
0.207633
0.167350
0.159293
0.127067
0.110953
0.078727
0.062614
0.062614
0.022330
0.022330
-0.009896
-0.026010
-0.034066
-0.034066
-0.042123
-0.042123
0.014274
-0.001840
0.022330
-0.001840
-0.042123
0.030387
0.014274
0.030387
0.030387
0.030387
0.030387
0.054557
0.038444
0.046500
0.086783
0.046500
0.054557
0.046500
0.038444
0.046500
0.078727
0.062614
0.078727
0.054557
0.070670
0.046500
0.062614
0.022330
0.086783
0.030387
0.006217
0.038444
-0.001840
-0.001840
-0.146859
-0.307992
-0.428842
-0.485238
-0.477181
-0.477181
-0.436898
-0.436898
-0.436898
-0.412728
-0.388558
-0.332162
-0.283822
-0.219369
-0.171029
-0.146859
-0.146859
-0.106576
-0.114633
-0.066293
-0.042123
-0.058236
-0.017953
0.006217
-0.017953
0.006217
0.159293
0.223746
0.239860
0.207633
0.199576
0.110953
0.102897
0.062614
0.046500
0.022330
0.006217
0.014274
-0.017953
0.006217
-0.017953
-0.017953
-0.001840
-0.009896
-0.009896
-0.001840
-0.017953
-0.009896
-0.017953
-0.009896
-0.026010
-0.034066
-0.009896
-0.001840
-0.034066
-0.058236
-0.050179
-0.034066
-0.017953
-0.009896
-0.009896
-0.026010
-0.058236
-0.042123
-0.017953
0.094840
0.304313
0.376823
0.433219
0.457389
0.449332
0.384879
0.376823
0.368766
0.368766
0.272086
0.247916
0.199576
0.159293
0.159293
0.102897
0.086783
0.062614
0.054557
0.078727
-0.009896
0.022330
-0.034066
-0.017953
-0.042123
-0.017953
-0.001840
-0.042123
0.006217
-0.017953
-0.009896
-0.026010
-0.034066
-0.009896
0.022330
0.022330
0.006217
0.022330
0.006217
-0.017953
-0.009896
-0.001840
0.046500
0.006217
0.046500
-0.001840
0.022330
0.006217
0.014274
0.006217
0.022330
0.022330
0.022330
0.046500
0.030387
0.014274
0.022330
0.046500
0.046500
0.054557
0.030387
-0.001840
0.014274
0.014274
-0.098519
-0.275765
-0.388558
-0.428842
-0.461068
-0.453011
-0.444955
-0.404672
-0.340219
-0.364388
-0.316049
-0.251595
-0.203256
-0.171029
-0.122689
-0.122689
-0.114633
-0.114633
-0.066293
-0.058236
-0.026010
0.014274
-0.009896
-0.001840
-0.001840
-0.009896
-0.017953
-0.009896
-0.001840
-0.009896
-0.026010
0.030387
-0.001840
-0.009896
-0.001840
0.006217
0.030387
-0.042123
-0.050179
-0.034066
-0.001840
-0.009896
-0.026010
-0.026010
-0.034066
-0.009896
-0.058236
-0.042123
-0.017953
-0.034066
-0.050179
-0.034066
-0.050179
-0.034066
0.070670
0.135123
0.215690
0.207633
0.207633
0.143180
0.094840
0.054557
0.030387
0.022330
0.070670
0.247916
0.344596
0.417106
0.433219
0.409049
0.400992
0.376823
0.352653
0.304313
0.288199
0.223746
0.191520
0.135123
0.127067
0.086783
0.070670
0.030387
0.022330
-0.009896
-0.001840
-0.026010
-0.034066
-0.001840
0.006217
-0.001840
-0.017953
-0.034066
-0.034066
-0.042123
-0.058236
0.030387
0.006217
-0.017953
-0.009896
-0.017953
-0.001840
-0.001840
-0.001840
0.006217
0.006217
0.022330
0.022330
-0.009896
0.038444
0.022330
0.046500
0.046500
0.022330
0.030387
0.022330
-0.001840
0.022330
0.022330
0.046500
0.006217
0.006217
0.006217
0.022330
0.038444
0.014274
0.030387
-0.001840
-0.009896
-0.026010
-0.203256
-0.356332
-0.428842
-0.461068
-0.461068
-0.412728
-0.388558
-0.388558
-0.364388
-0.299935
-0.243539
-0.211312
-0.162972
-0.154916
-0.138802
-0.106576
-0.106576
-0.082406
-0.066293
-0.017953
-0.042123
-0.001840
0.022330
-0.009896
0.014274
-0.026010
0.030387
-0.034066
-0.009896
0.038444
-0.026010
0.006217
0.006217
0.014274
-0.034066
-0.001840
0.006217
-0.009896
-0.009896
0.006217
-0.042123
0.014274
-0.017953
-0.026010
-0.034066
0.006217
-0.026010
-0.034066
-0.001840
-0.026010
0.022330
-0.026010
-0.017953
-0.009896
-0.034066
-0.026010
-0.050179
-0.042123
-0.034066
-0.042123
-0.058236
-0.058236
-0.042123
-0.017953
0.135123
0.272086
0.360709
0.392936
0.376823
0.352653
0.360709
0.368766
0.344596
0.288199
0.215690
0.143180
0.094840
0.086783
0.135123
0.239860
0.264030
0.272086
0.215690
0.167350
0.094840
0.038444
0.022330
0.038444
-0.001840
0.006217
-0.026010
-0.017953
-0.017953
-0.026010
-0.001840
-0.034066
-0.042123
0.046500
-0.042123
-0.042123
-0.034066
-0.017953
-0.001840
0.022330
0.022330
0.014274
-0.001840
0.006217
-0.001840
-0.009896
0.030387
0.006217
0.014274
0.006217
-0.009896
-0.001840
-0.001840
0.022330
0.038444
0.030387
-0.026010
-0.001840
-0.009896
0.022330
0.022330
0.006217
0.006217
-0.017953
-0.171029
-0.340219
-0.396615
-0.420785
-0.444955
-0.420785
-0.436898
-0.420785
-0.380502
-0.307992
-0.251595
-0.227426
-0.171029
-0.154916
-0.130746
-0.098519
-0.114633
-0.074349
-0.001840
-0.026010
-0.001840
0.022330
-0.026010
-0.001840
0.022330
0.030387
0.022330
-0.026010
-0.009896
-0.009896
0.062614
-0.017953
-0.009896
-0.034066
0.022330
-0.009896
-0.001840
-0.017953
-0.017953
-0.026010
-0.001840
-0.017953
-0.026010
-0.017953
-0.017953
-0.034066
-0.042123
-0.009896
0.038444
-0.026010
-0.017953
-0.034066
0.006217
-0.009896
-0.042123
-0.017953
0.014274
-0.034066
-0.017953
-0.034066
-0.034066
-0.050179
-0.009896
-0.017953
0.127067
0.288199
0.400992
0.384879
0.368766
0.400992
0.384879
0.376823
0.360709
0.288199
0.255973
0.199576
0.167350
0.102897
0.094840
0.086783
0.062614
0.054557
0.030387
0.046500
-0.017953
-0.017953
-0.009896
-0.050179
-0.009896
-0.034066
-0.034066
-0.017953
-0.026010
-0.034066
-0.017953
-0.001840
-0.026010
-0.026010
-0.042123
-0.042123
-0.026010
-0.026010
0.006217
-0.034066
0.022330
0.014274
0.070670
0.183463
0.247916
0.247916
0.264030
0.239860
0.223746
0.175406
0.119010
0.086783
0.054557
0.038444
-0.001840
0.014274
0.038444
0.030387
0.030387
0.086783
0.014274
0.046500
-0.017953
0.014274
-0.138802
-0.316049
-0.412728
-0.469125
-0.380502
-0.404672
-0.428842
-0.420785
-0.372445
-0.307992
-0.235482
-0.195199
-0.146859
-0.146859
-0.082406
-0.090463
-0.090463
-0.066293
-0.058236
-0.026010
-0.034066
-0.009896
0.014274
0.014274
-0.026010
0.014274
-0.009896
-0.017953
0.006217
-0.017953
-0.009896
0.014274
-0.026010
0.006217
0.022330
-0.001840
-0.001840
0.006217
0.014274
-0.034066
-0.026010
-0.009896
-0.009896
-0.017953
-0.026010
-0.026010
-0.009896
-0.034066
-0.034066
-0.034066
-0.050179
-0.001840
-0.034066
0.006217
-0.009896
-0.017953
-0.034066
-0.017953
-0.034066
-0.017953
-0.034066
-0.034066
-0.042123
0.006217
0.135123
0.296256
0.409049
0.449332
0.384879
0.368766
0.400992
0.400992
0.360709
0.288199
0.215690
0.183463
0.175406
0.119010
0.086783
0.110953
0.062614
0.014274
-0.009896
0.022330
0.022330
-0.017953
-0.042123
-0.009896
0.006217
0.006217
-0.009896
-0.050179
-0.026010
-0.050179
-0.017953
-0.034066
-0.034066
0.038444
0.014274
-0.017953
-0.034066
-0.009896
-0.009896
-0.001840
-0.026010
-0.026010
-0.001840
-0.009896
0.030387
0.014274
0.006217
-0.017953
-0.001840
-0.001840
-0.009896
0.022330
0.014274
0.006217
-0.001840
0.006217
-0.001840
0.038444
-0.001840
0.046500
-0.034066
-0.001840
0.006217
-0.042123
-0.195199
-0.299935
-0.227426
-0.235482
-0.195199
-0.203256
-0.259652
-0.267709
-0.267709
-0.211312
-0.211312
-0.179086
-0.130746
-0.106576
-0.114633
-0.098519
-0.098519
-0.066293
-0.050179
-0.034066
-0.009896
-0.026010
0.014274
-0.017953
-0.001840
-0.009896
-0.017953
0.006217
-0.009896
0.022330
-0.026010
0.006217
-0.009896
-0.009896
-0.001840
-0.001840
-0.034066
0.030387
0.022330
0.022330
-0.009896
-0.001840
-0.009896
-0.001840
-0.026010
-0.026010
-0.017953
-0.001840
0.006217
-0.001840
-0.001840
-0.026010
-0.009896
-0.009896
-0.009896
-0.001840
-0.058236
-0.009896
-0.026010
-0.034066
-0.034066
-0.009896
-0.034066
-0.017953
0.143180
0.312369
0.392936
0.425162
0.400992
0.384879
0.417106
0.400992
0.352653
0.296256
0.207633
0.175406
0.119010
0.110953
0.102897
0.094840
0.070670
0.038444
0.046500
0.014274
-0.009896
-0.026010
-0.042123
0.006217
-0.034066
-0.026010
-0.017953
-0.034066
-0.034066
-0.050179
-0.001840
0.014274
-0.042123
-0.009896
-0.001840
-0.001840
-0.034066
0.014274
0.014274
-0.026010
0.038444
0.030387
-0.009896
0.006217
0.006217
-0.009896
0.022330
0.006217
0.006217
0.030387
0.014274
0.022330
0.046500
0.006217
0.006217
0.054557
0.030387
0.054557
0.022330
0.030387
-0.001840
0.006217
-0.026010
-0.017953
-0.138802
-0.324105
-0.388558
-0.428842
-0.388558
-0.388558
-0.396615
-0.396615
-0.364388
-0.283822
-0.211312
-0.179086
-0.114633
-0.114633
-0.114633
-0.074349
-0.074349
-0.066293
-0.050179
-0.042123
-0.017953
-0.001840
-0.042123
-0.009896
-0.001840
-0.017953
-0.026010
-0.009896
-0.034066
-0.026010
-0.050179
0.070670
0.199576
0.223746
0.215690
0.191520
0.143180
0.119010
0.078727
0.046500
0.030387
0.030387
-0.001840
-0.017953
-0.017953
-0.001840
-0.009896
-0.001840
-0.026010
-0.001840
0.014274
-0.026010
-0.017953
-0.009896
-0.034066
-0.001840
-0.026010
-0.026010
-0.026010
-0.042123
-0.017953
0.006217
-0.034066
0.030387
0.143180
0.288199
0.368766
0.417106
0.368766
0.425162
0.384879
0.392936
0.360709
0.272086
0.215690
0.183463
0.151237
0.102897
0.054557
0.054557
0.038444
0.046500
0.038444
-0.017953
0.006217
-0.026010
-0.026010
-0.009896
-0.042123
-0.042123
-0.034066
-0.026010
-0.050179
-0.026010
-0.017953
-0.001840
0.006217
-0.009896
-0.001840
-0.001840
0.006217
-0.009896
-0.026010
-0.017953
0.022330
0.006217
-0.001840
-0.017953
-0.026010
0.006217
0.014274
0.022330
0.014274
0.006217
0.022330
0.022330
0.006217
-0.001840
0.006217
0.006217
0.006217
0.006217
0.014274
-0.001840
0.014274
0.006217
0.038444
0.030387
-0.187142
-0.332162
-0.428842
-0.428842
-0.412728
-0.412728
-0.412728
-0.380502
-0.372445
-0.299935
-0.227426
-0.219369
-0.146859
-0.106576
-0.066293
-0.106576
-0.066293
-0.058236
-0.026010
-0.026010
0.006217
-0.009896
0.006217
-0.017953
-0.001840
0.022330
-0.017953
-0.001840
-0.017953
-0.001840
0.006217
-0.017953
0.014274
0.014274
0.030387
-0.017953
0.006217
-0.009896
-0.026010
-0.001840
-0.034066
-0.001840
-0.001840
-0.009896
-0.026010
-0.001840
-0.026010
-0.034066
-0.034066
-0.034066
-0.058236
-0.058236
-0.042123
-0.034066
-0.058236
-0.034066
0.022330
0.143180
0.231803
0.207633
0.183463
0.135123
0.054557
0.094840
0.199576
0.368766
0.376823
0.409049
0.417106
0.392936
0.400992
0.368766
0.344596
0.288199
0.255973
0.207633
0.159293
0.110953
0.078727
0.102897
0.078727
0.022330
0.030387
-0.034066
-0.034066
-0.026010
-0.009896
-0.009896
-0.017953
-0.034066
-0.050179
-0.042123
-0.034066
-0.001840
-0.009896
-0.009896
-0.034066
-0.017953
-0.001840
-0.001840
-0.017953
-0.009896
0.038444
0.006217
0.030387
0.030387
0.006217
0.030387
0.046500
-0.001840
0.014274
0.014274
-0.001840
-0.001840
-0.001840
0.030387
0.006217
0.022330
-0.001840
0.022330
-0.009896
0.006217
0.022330
0.046500
0.046500
-0.026010
-0.026010
-0.017953
-0.195199
-0.332162
-0.453011
-0.412728
-0.420785
-0.396615
-0.396615
-0.412728
-0.364388
-0.299935
-0.227426
-0.203256
-0.154916
-0.130746
-0.106576
-0.090463
-0.106576
-0.042123
-0.050179
-0.017953
-0.009896
0.006217
0.006217
0.038444
0.014274
-0.001840
0.022330
0.022330
0.022330
-0.017953
0.014274
0.030387
0.014274
0.022330
-0.001840
-0.009896
-0.009896
0.014274
-0.001840
-0.026010
-0.042123
-0.017953
-0.026010
-0.026010
-0.026010
-0.017953
0.006217
-0.017953
-0.009896
-0.017953
-0.026010
-0.001840
-0.017953
-0.050179
-0.066293
-0.001840
-0.042123
-0.034066
-0.042123
-0.042123
-0.017953
-0.034066
-0.017953
-0.026010
0.151237
0.304313
0.433219
0.368766
0.384879
0.360709
0.360709
0.368766
0.344596
0.247916
0.215690
0.151237
0.094840
0.078727
0.046500
0.070670
0.022330
0.038444
-0.009896
-0.034066
0.022330
0.151237
0.231803
0.223746
0.191520
0.151237
0.159293
0.062614
0.062614
0.006217
0.046500
-0.001840
0.014274
0.022330
-0.026010
-0.009896
-0.026010
0.030387
-0.034066
0.014274
-0.009896
0.022330
-0.034066
-0.017953
-0.009896
0.030387
0.014274
0.038444
0.022330
0.006217
-0.026010
-0.001840
0.030387
-0.009896
0.038444
0.006217
0.014274
0.006217
0.006217
-0.009896
-0.017953
0.014274
-0.026010
-0.042123
-0.179086
-0.324105
-0.412728
-0.477181
-0.420785
-0.396615
-0.404672
-0.420785
-0.356332
-0.307992
-0.243539
-0.195199
-0.162972
-0.146859
-0.090463
-0.090463
-0.082406
-0.034066
-0.026010
-0.001840
-0.026010
-0.026010
0.006217
0.022330
-0.026010
0.006217
-0.017953
0.014274
0.030387
0.046500
-0.009896
-0.034066
-0.017953
0.006217
0.014274
-0.009896
-0.009896
-0.034066
-0.026010
-0.001840
-0.009896
-0.009896
-0.009896
-0.009896
-0.017953
-0.009896
-0.009896
0.030387
-0.001840
-0.034066
0.006217
-0.017953
-0.026010
-0.026010
-0.001840
-0.026010
-0.034066
-0.058236
-0.001840
-0.001840
-0.026010
-0.026010
-0.026010
-0.034066
0.191520
0.328483
0.368766
0.400992
0.360709
0.368766
0.336539
0.352653
0.296256
0.272086
0.207633
0.175406
0.143180
0.119010
0.054557
0.078727
0.086783
0.030387
0.022330
-0.001840
0.006217
-0.009896
-0.017953
-0.042123
-0.034066
-0.042123
-0.050179
-0.017953
-0.034066
-0.042123
-0.026010
-0.001840
-0.026010
-0.001840
-0.001840
-0.009896
-0.034066
-0.026010
0.030387
-0.026010
0.006217
-0.026010
-0.026010
0.046500
0.119010
0.223746
0.207633
0.199576
0.167350
0.127067
0.110953
0.054557
0.054557
0.030387
0.046500
0.030387
0.022330
-0.001840
0.006217
0.006217
0.014274
-0.009896
-0.009896
-0.066293
-0.179086
-0.332162
-0.428842
-0.436898
-0.428842
-0.404672
-0.412728
-0.372445
-0.372445
-0.267709
-0.227426
-0.171029
-0.154916
-0.138802
-0.114633
-0.090463
-0.114633
-0.050179
-0.042123
-0.017953
-0.001840
0.006217
0.006217
-0.001840
0.006217
-0.009896
-0.017953
-0.001840
-0.009896
-0.026010
-0.001840
-0.009896
-0.001840
-0.001840
0.006217
-0.001840
-0.026010
-0.026010
-0.009896
-0.034066
-0.017953
-0.042123
-0.034066
-0.034066
-0.017953
0.014274
-0.034066
0.014274
-0.001840
-0.017953
-0.009896
-0.034066
-0.009896
-0.042123
-0.026010
-0.026010
-0.001840
-0.042123
-0.001840
-0.017953
-0.017953
-0.042123
-0.026010
0.030387
0.151237
0.296256
0.384879
0.400992
0.392936
0.360709
0.376823
0.352653
0.344596
0.255973
0.199576
0.183463
0.119010
0.110953
0.046500
0.086783
0.070670
0.038444
0.006217
-0.009896
0.022330
-0.001840
-0.026010
-0.009896
-0.026010
-0.017953
-0.034066
-0.017953
0.006217
-0.050179
-0.017953
-0.034066
-0.042123
-0.026010
-0.042123
-0.009896
-0.034066
-0.009896
0.006217
-0.009896
-0.034066
-0.017953
0.014274
0.022330
-0.001840
-0.009896
-0.001840
-0.026010
0.014274
-0.001840
-0.001840
0.022330
-0.026010
0.030387
0.022330
-0.001840
-0.017953
0.022330
0.014274
-0.017953
0.006217
-0.009896
0.006217
-0.034066
-0.195199
-0.348275
-0.453011
-0.461068
-0.444955
-0.420785
-0.428842
-0.412728
-0.388558
-0.227426
-0.050179
0.014274
0.062614
0.086783
0.102897
0.014274
0.006217
0.030387
0.014274
-0.009896
-0.001840
0.022330
0.030387
0.022330
0.046500
-0.001840
0.030387
-0.017953
0.014274
-0.017953
-0.001840
-0.017953
-0.026010
-0.017953
-0.034066
-0.001840
-0.042123
-0.026010
0.014274
-0.026010
-0.026010
-0.034066
-0.026010
-0.001840
-0.009896
-0.026010
-0.009896
-0.017953
-0.026010
-0.026010
-0.017953
-0.026010
-0.009896
-0.034066
-0.034066
-0.034066
-0.034066
0.014274
-0.017953
-0.017953
-0.009896
-0.026010
-0.042123
0.030387
0.143180
0.320426
0.392936
0.368766
0.417106
0.360709
0.425162
0.368766
0.352653
0.247916
0.231803
0.191520
0.119010
0.110953
0.070670
0.086783
0.062614
0.022330
0.014274
-0.017953
-0.042123
-0.034066
-0.034066
-0.026010
-0.050179
-0.017953
-0.042123
0.006217
-0.017953
-0.050179
-0.026010
-0.001840
0.014274
-0.009896
-0.009896
-0.042123
-0.042123
-0.001840
-0.009896
0.006217
0.014274
-0.009896
-0.001840
-0.009896
-0.026010
-0.026010
-0.009896
-0.017953
0.022330
0.006217
-0.017953
0.014274
0.014274
0.030387
0.022330
0.014274
-0.017953
0.014274
0.014274
0.022330
0.006217
0.006217
-0.001840
-0.026010
-0.203256
-0.324105
-0.420785
-0.428842
-0.396615
-0.412728
-0.412728
-0.380502
-0.356332
-0.299935
-0.283822
-0.195199
-0.171029
-0.130746
-0.098519
-0.098519
-0.082406
-0.074349
-0.017953
-0.026010
-0.009896
-0.026010
0.022330
-0.001840
-0.001840
-0.017953
-0.017953
0.038444
-0.009896
-0.017953
-0.017953
-0.009896
-0.001840
-0.026010
0.046500
0.175406
0.231803
0.215690
0.199576
0.151237
0.086783
0.054557
0.030387
0.022330
0.030387
-0.001840
0.038444
-0.034066
-0.017953
-0.009896
0.006217
-0.009896
-0.026010
-0.026010
-0.009896
0.006217
-0.026010
-0.042123
-0.034066
-0.034066
-0.026010
-0.009896
-0.026010
0.006217
0.127067
0.320426
0.360709
0.400992
0.352653
0.409049
0.360709
0.376823
0.336539
0.264030
0.231803
0.175406
0.119010
0.110953
0.070670
0.054557
0.062614
0.030387
0.006217
-0.009896
-0.026010
0.006217
-0.001840
-0.042123
-0.009896
-0.042123
-0.001840
-0.009896
-0.042123
-0.034066
-0.034066
-0.017953
-0.001840
-0.009896
-0.026010
-0.009896
-0.026010
-0.034066
-0.009896
-0.042123
0.006217
0.006217
-0.001840
-0.001840
0.022330
0.014274
0.014274
0.014274
0.014274
-0.001840
0.022330
0.030387
0.014274
-0.009896
-0.001840
0.030387
-0.009896
-0.001840
-0.009896
-0.026010
0.014274
-0.001840
0.014274
-0.017953
-0.195199
-0.299935
-0.388558
-0.404672
-0.436898
-0.420785
-0.396615
-0.396615
-0.348275
-0.340219
-0.203256
-0.162972
-0.146859
-0.122689
-0.098519
-0.058236
-0.082406
-0.066293
-0.026010
-0.034066
-0.017953
-0.001840
-0.001840
0.014274
0.006217
0.006217
-0.017953
0.014274
-0.009896
-0.017953
-0.026010
0.006217
-0.009896
0.006217
-0.001840
-0.050179
-0.009896
-0.001840
-0.009896
-0.017953
-0.034066
-0.017953
-0.017953
-0.017953
-0.042123
-0.050179
-0.017953
-0.034066
-0.001840
-0.026010
-0.066293
-0.026010
-0.042123
-0.026010
-0.026010
-0.034066
-0.058236
-0.058236
-0.026010
-0.026010
-0.001840
-0.034066
-0.009896
0.167350
0.409049
0.546012
0.642692
0.602408
0.562125
0.497672
0.481559
0.433219
0.344596
0.288199
0.223746
0.159293
0.175406
0.086783
0.086783
0.054557
0.022330
0.030387
-0.001840
-0.050179
-0.050179
-0.042123
-0.034066
-0.042123
-0.034066
-0.058236
-0.042123
-0.034066
-0.058236
-0.017953
-0.034066
-0.009896
-0.042123
-0.017953
0.022330
-0.026010
-0.034066
-0.042123
-0.026010
-0.034066
-0.050179
-0.017953
0.014274
-0.001840
0.022330
-0.001840
-0.009896
-0.017953
0.014274
0.022330
-0.026010
-0.034066
0.006217
0.006217
-0.009896
-0.026010
-0.026010
-0.009896
-0.001840
-0.001840
-0.009896
-0.001840
-0.001840
-0.042123
-0.195199
-0.356332
-0.412728
-0.461068
-0.404672
-0.380502
-0.412728
-0.356332
-0.348275
-0.307992
-0.211312
-0.227426
-0.179086
-0.130746
-0.066293
-0.106576
-0.098519
-0.074349
-0.058236
-0.001840
-0.017953
-0.001840
-0.009896
-0.009896
-0.001840
0.014274
0.038444
-0.017953
-0.009896
-0.017953
-0.001840
0.022330
-0.009896
0.022330
0.022330
0.006217
0.022330
0.006217
-0.042123
-0.034066
0.006217
-0.009896
0.006217
-0.026010
-0.026010
-0.001840
-0.034066
-0.050179
-0.034066
-0.026010
-0.034066
-0.009896
-0.042123
-0.050179
-0.026010
-0.050179
-0.001840
-0.042123
-0.001840
-0.042123
-0.026010
-0.001840
-0.026010
0.022330
0.151237
0.336539
0.400992
0.360709
0.368766
0.392936
0.368766
0.376823
0.328483
0.247916
0.231803
0.151237
0.102897
0.094840
0.102897
0.030387
0.038444
0.030387
-0.009896
-0.009896
-0.026010
-0.009896
0.127067
0.215690
0.143180
0.159293
0.127067
0.094840
0.070670
0.030387
-0.009896
-0.017953
-0.026010
0.038444
-0.001840
-0.042123
-0.042123
-0.034066
-0.017953
-0.001840
0.006217
-0.001840
-0.026010
-0.017953
-0.009896
-0.009896
-0.017953
-0.001840
-0.009896
-0.009896
0.014274
0.030387
0.014274
-0.001840
0.014274
-0.017953
0.006217
-0.009896
-0.026010
0.006217
0.006217
0.006217
-0.009896
-0.066293
-0.219369
-0.356332
-0.453011
-0.453011
-0.420785
-0.420785
-0.412728
-0.396615
-0.364388
-0.307992
-0.227426
-0.195199
-0.162972
-0.122689
-0.138802
-0.098519
-0.090463
-0.058236
-0.066293
-0.017953
-0.001840
-0.017953
-0.001840
-0.009896
-0.042123
-0.001840
-0.001840
0.006217
-0.034066
-0.009896
0.006217
0.006217
-0.009896
-0.042123
0.014274
0.030387
-0.001840
-0.009896
-0.009896
-0.001840
-0.050179
-0.026010
-0.034066
-0.009896
-0.026010
-0.050179
-0.017953
-0.026010
-0.058236
-0.017953
-0.009896
-0.001840
-0.050179
-0.050179
-0.034066
-0.042123
-0.058236
-0.042123
-0.026010
-0.009896
-0.026010
-0.058236
-0.066293
-0.017953
0.159293
0.304313
0.376823
0.384879
0.360709
0.360709
0.344596
0.376823
0.312369
0.264030
0.239860
0.183463
0.143180
0.127067
0.070670
0.070670
0.086783
0.038444
0.006217
-0.001840
-0.026010
-0.009896
-0.050179
-0.034066
-0.034066
-0.017953
-0.001840
-0.058236
-0.050179
-0.042123
-0.001840
-0.042123
-0.042123
-0.026010
-0.009896
-0.050179
-0.050179
-0.042123
-0.042123
-0.026010
-0.009896
0.022330
0.006217
-0.001840
-0.017953
-0.017953
-0.050179
-0.034066
-0.026010
-0.034066
-0.017953
0.094840
0.215690
0.231803
0.199576
0.223746
0.191520
0.167350
0.070670
0.054557
0.030387
0.046500
0.046500
-0.058236
-0.219369
-0.332162
-0.453011
-0.420785
-0.404672
-0.428842
-0.436898
-0.404672
-0.388558
-0.291879
-0.267709
-0.179086
-0.162972
-0.122689
-0.090463
-0.098519
-0.074349
-0.066293
-0.034066
-0.009896
-0.017953
0.006217
0.006217
0.014274
0.006217
0.006217
0.030387
0.006217
0.022330
0.014274
0.006217
0.006217
0.006217
0.006217
-0.042123
-0.017953
-0.042123
-0.026010
-0.001840
-0.026010
-0.017953
-0.034066
-0.026010
-0.026010
-0.066293
-0.017953
-0.034066
-0.026010
-0.042123
-0.058236
-0.050179
-0.050179
-0.042123
-0.042123
-0.009896
-0.017953
-0.042123
-0.034066
-0.042123
-0.017953
-0.050179
-0.017953
-0.026010
-0.009896
0.199576
0.304313
0.376823
0.400992
0.384879
0.360709
0.400992
0.360709
0.328483
0.312369
0.215690
0.102897
0.119010
0.086783
0.094840
0.086783
0.054557
0.022330
0.030387
-0.017953
-0.026010
-0.042123
-0.017953
-0.058236
-0.034066
-0.050179
-0.042123
-0.009896
-0.026010
-0.026010
-0.001840
-0.009896
-0.026010
-0.050179
-0.009896
0.006217
-0.017953
-0.034066
-0.034066
-0.017953
0.014274
-0.001840
-0.026010
-0.009896
0.006217
-0.001840
-0.026010
0.006217
0.006217
-0.001840
0.006217
-0.026010
-0.026010
-0.009896
-0.050179
-0.017953
-0.001840
-0.017953
-0.017953
0.014274
-0.009896
0.006217
0.014274
-0.034066
-0.211312
-0.348275
-0.412728
-0.453011
-0.412728
-0.380502
-0.396615
-0.388558
-0.388558
-0.291879
-0.275765
-0.187142
-0.122689
0.046500
0.078727
0.143180
0.151237
0.127067
0.078727
0.062614
0.038444
0.014274
-0.001840
0.014274
-0.017953
0.014274
-0.001840
0.022330
-0.001840
-0.009896
-0.001840
-0.001840
0.014274
-0.001840
-0.009896
-0.017953
-0.034066
0.006217
-0.026010
-0.034066
-0.026010
-0.009896
-0.017953
-0.017953
-0.034066
-0.050179
-0.042123
-0.034066
-0.034066
-0.042123
-0.026010
-0.034066
-0.050179
-0.009896
-0.058236
-0.034066
-0.026010
-0.050179
-0.042123
-0.034066
0.014274
-0.058236
-0.034066
0.030387
0.199576
0.360709
0.384879
0.409049
0.392936
0.368766
0.352653
0.320426
0.312369
0.255973
0.207633
0.151237
0.119010
0.094840
0.070670
0.086783
0.062614
0.038444
0.022330
-0.009896
-0.026010
-0.009896
-0.017953
-0.009896
-0.050179
-0.017953
-0.050179
-0.034066
-0.026010
-0.042123
-0.026010
-0.050179
-0.026010
-0.050179
-0.009896
-0.034066
0.006217
0.030387
-0.001840
-0.017953
-0.009896
0.014274
-0.009896
0.038444
0.030387
0.062614
-0.001840
-0.009896
-0.017953
0.006217
-0.009896
0.006217
-0.026010
-0.001840
-0.001840
0.014274
-0.001840
-0.001840
0.014274
-0.001840
-0.009896
-0.026010
-0.042123
-0.050179
-0.227426
-0.372445
-0.412728
-0.428842
-0.420785
-0.420785
-0.420785
-0.388558
-0.364388
-0.299935
-0.251595
-0.203256
-0.138802
-0.106576
-0.130746
-0.098519
-0.082406
-0.066293
-0.042123
-0.042123
-0.017953
-0.034066
-0.026010
0.014274
-0.001840
0.014274
-0.009896
-0.001840
-0.009896
-0.017953
-0.026010
-0.017953
-0.017953
-0.009896
-0.026010
-0.058236
-0.001840
-0.034066
-0.026010
-0.017953
0.014274
0.127067
0.207633
0.199576
0.215690
0.159293
0.094840
0.086783
0.054557
0.022330
0.006217
-0.009896
-0.034066
-0.017953
-0.042123
-0.009896
-0.001840
-0.050179
-0.017953
-0.050179
-0.017953
-0.042123
-0.034066
0.022330
0.175406
0.336539
0.392936
0.352653
0.392936
0.392936
0.360709
0.320426
0.328483
0.280143
0.191520
0.135123
0.110953
0.078727
0.078727
0.062614
0.078727
0.022330
-0.026010
-0.017953
-0.050179
-0.009896
-0.034066
-0.026010
-0.058236
-0.034066
-0.042123
-0.017953
-0.058236
-0.017953
-0.042123
-0.042123
-0.009896
-0.034066
-0.017953
-0.034066
-0.042123
-0.034066
-0.042123
-0.001840
0.014274
-0.026010
-0.026010
-0.017953
-0.017953
0.014274
0.006217
0.006217
0.006217
-0.026010
0.006217
-0.001840
0.014274
0.006217
-0.009896
-0.009896
-0.001840
-0.009896
-0.009896
0.006217
-0.009896
0.006217
0.006217
-0.034066
-0.259652
-0.380502
-0.436898
-0.436898
-0.436898
-0.404672
-0.404672
-0.404672
-0.356332
-0.283822
-0.203256
-0.187142
-0.146859
-0.114633
-0.106576
-0.114633
-0.098519
-0.058236
-0.042123
-0.017953
-0.017953
-0.009896
0.022330
0.014274
0.030387
-0.001840
0.022330
0.030387
-0.026010
-0.009896
-0.017953
-0.009896
0.006217
-0.009896
-0.017953
-0.017953
-0.042123
-0.001840
0.022330
-0.042123
-0.058236
-0.009896
-0.001840
-0.001840
0.022330
-0.026010
-0.042123
-0.034066
-0.042123
-0.026010
-0.042123
-0.017953
-0.050179
-0.050179
-0.001840
-0.042123
-0.009896
-0.026010
-0.050179
-0.058236
-0.042123
-0.034066
-0.058236
0.070670
0.352653
0.537955
0.618522
0.578239
0.586295
0.473502
0.481559
0.384879
0.320426
0.288199
0.264030
0.151237
0.127067
0.094840
0.094840
0.062614
0.038444
0.030387
0.030387
-0.034066
-0.034066
-0.026010
-0.001840
-0.034066
-0.050179
-0.026010
-0.034066
-0.034066
-0.042123
-0.017953
-0.034066
-0.050179
-0.034066
-0.050179
-0.050179
0.006217
-0.017953
-0.042123
-0.009896
-0.026010
-0.001840
-0.009896
-0.009896
-0.001840
-0.034066
-0.026010
-0.017953
0.014274
-0.009896
-0.034066
-0.017953
-0.001840
-0.001840
-0.034066
0.006217
-0.017953
0.006217
0.014274
-0.001840
-0.009896
-0.034066
-0.034066
0.006217
-0.050179
-0.235482
-0.396615
-0.436898
-0.469125
-0.412728
-0.396615
-0.396615
-0.404672
-0.299935
-0.259652
-0.211312
-0.219369
-0.122689
-0.114633
-0.114633
-0.098519
-0.082406
-0.066293
-0.042123
-0.026010
-0.001840
0.014274
-0.001840
-0.009896
0.006217
-0.042123
-0.017953
-0.009896
-0.001840
0.006217
-0.001840
-0.026010
0.022330
-0.001840
-0.001840
-0.017953
-0.026010
-0.058236
-0.042123
-0.009896
-0.001840
-0.026010
-0.034066
-0.066293
-0.026010
-0.026010
-0.009896
-0.026010
-0.050179
-0.026010
-0.026010
-0.017953
-0.042123
-0.026010
-0.017953
-0.017953
-0.026010
-0.050179
-0.042123
-0.058236
-0.050179
-0.050179
-0.026010
0.030387
0.191520
0.336539
0.400992
0.400992
0.368766
0.392936
0.392936
0.344596
0.296256
0.247916
0.191520
0.175406
0.143180
0.070670
0.062614
0.030387
0.062614
0.030387
-0.001840
-0.050179
-0.058236
-0.050179
-0.042123
-0.050179
-0.058236
-0.058236
-0.034066
-0.058236
-0.058236
0.022330
0.167350
0.151237
0.151237
0.119010
0.110953
0.102897
0.062614
0.030387
0.054557
-0.001840
-0.017953
0.014274
0.006217
-0.009896
-0.001840
0.022330
-0.009896
-0.034066
-0.001840
-0.017953
0.022330
-0.001840
-0.017953
0.006217
-0.001840
-0.017953
-0.026010
-0.009896
-0.001840
-0.001840
0.022330
-0.009896
0.014274
-0.074349
-0.243539
-0.404672
-0.420785
-0.380502
-0.404672
-0.428842
-0.404672
-0.388558
-0.372445
-0.283822
-0.211312
-0.162972
-0.154916
-0.162972
-0.114633
-0.090463
-0.090463
-0.082406
-0.042123
0.006217
-0.009896
-0.034066
-0.017953
0.014274
0.022330
-0.009896
-0.017953
0.006217
-0.017953
-0.017953
-0.034066
-0.009896
-0.009896
-0.001840
-0.001840
-0.034066
0.006217
-0.042123
-0.017953
-0.050179
-0.026010
