1.526519
1.437896
0.704742
0.358306
0.181060
0.116607
0.027984
0.019928
0.036041
-0.036469
-0.004242
-0.012299
0.003814
0.003814
0.011871
-0.020356
-0.092865
-0.302338
-0.511811
-0.632660
-0.648774
-0.721283
-0.697113
-0.681000
-0.681000
-0.785736
-0.745453
-0.664887
-0.664887
-0.640717
-0.592377
-0.560151
-0.503754
-0.463471
-0.487641
-0.495697
-0.463471
-0.431244
-0.366791
-0.302338
-0.237885
-0.237885
-0.229828
-0.173432
-0.181488
-0.189545
-0.108979
-0.133149
-0.108979
-0.044526
-0.036469
-0.028412
0.027984
0.148834
0.253570
0.221344
0.221344
0.197174
0.140777
0.181060
0.132721
0.076324
0.044097
0.036041
0.003814
0.019928
0.019928
-0.020356
-0.036469
-0.052582
0.003814
-0.060639
-0.028412
-0.028412
-0.036469
-0.060639
-0.044526
-0.036469
-0.036469
-0.028412
-0.060639
-0.036469
-0.012299
-0.036469
-0.036469
-0.004242
-0.020356
0.148834
0.390533
0.591949
0.640289
0.608062
0.608062
0.567779
0.543609
0.511383
0.495269
0.535553
0.503326
0.503326
0.463043
0.398590
0.334137
0.237457
0.205230
0.164947
0.116607
0.140777
0.100494
0.092437
0.076324
0.044097
0.036041
0.003814
-0.004242
-0.036469
-0.004242
-0.036469
-0.020356
-0.044526
-0.020356
-0.044526
-0.036469
-0.028412
-0.028412
-0.004242
-0.052582
-0.004242
0.027984
0.011871
0.019928
0.011871
0.044097
-0.020356
-0.012299
0.003814
-0.028412
-0.004242
-0.012299
-0.020356
-0.004242
0.011871
-0.012299
-0.004242
0.027984
0.003814
-0.028412
0.011871
-0.004242
-0.020356
0.019928
0.011871
-0.004242
-0.125092
-0.318451
-0.463471
-0.479584
-0.471528
-0.479584
-0.447358
-0.471528
-0.439301
-0.439301
-0.407074
-0.390961
-0.350678
-0.262055
-0.205658
-0.165375
-0.125092
-0.133149
-0.141205
-0.068695
-0.060639
-0.044526
-0.052582
-0.028412
0.011871
0.003814
-0.004242
0.052154
0.027984
-0.004242
0.011871
0.003814
0.011871
-0.036469
0.003814
-0.004242
-0.004242
0.019928
0.003814
0.052154
0.011871
0.003814
-0.004242
-0.012299
-0.060639
-0.052582
-0.044526
-0.036469
-0.044526
-0.052582
-0.044526
-0.076752
-0.052582
-0.044526
-0.060639
0.027984
0.116607
0.213287
0.269683
0.213287
0.205230
0.189117
0.148834
0.116607
0.092437
0.011871
0.052154
0.124664
0.301910
0.342193
0.350250
0.382476
0.390533
0.374420
0.366363
0.350250
0.301910
0.253570
0.213287
0.132721
0.132721
0.084381
0.092437
0.068267
0.019928
0.011871
0.003814
-0.020356
-0.028412
-0.052582
-0.036469
-0.028412
-0.044526
-0.068695
-0.052582
-0.012299
-0.076752
-0.044526
-0.020356
-0.020356
-0.052582
-0.036469
-0.036469
-0.020356
-0.012299
-0.004242
0.003814
0.011871
0.044097
0.036041
-0.028412
-0.020356
0.011871
0.011871
-0.004242
0.003814
-0.012299
-0.004242
0.019928
-0.020356
0.027984
-0.004242
-0.012299
0.036041
0.019928
-0.012299
-0.004242
0.011871
-0.036469
0.036041
0.027984
-0.068695
-0.253998
-0.374848
-0.366791
-0.366791
-0.407074
-0.407074
-0.390961
-0.358735
-0.302338
-0.270111
-0.189545
-0.165375
-0.117035
-0.108979
-0.125092
-0.076752
-0.060639
-0.020356
-0.044526
0.011871
-0.004242
-0.004242
-0.004242
-0.004242
0.019928
0.011871
-0.012299
-0.020356
-0.012299
0.003814
0.027984
-0.012299
-0.028412
-0.004242
-0.028412
-0.020356
-0.020356
0.003814
-0.044526
-0.028412
-0.020356
-0.012299
-0.044526
-0.020356
-0.028412
-0.060639
-0.044526
-0.044526
-0.012299
-0.036469
-0.044526
-0.060639
-0.036469
-0.044526
-0.036469
-0.036469
-0.012299
-0.020356
-0.012299
-0.028412
-0.028412
-0.052582
-0.052582
0.019928
0.156890
0.293853
0.326080
0.350250
0.366363
0.366363
0.318023
0.342193
0.269683
0.205230
0.205230
0.261627
0.293853
0.269683
0.285797
0.245514
0.156890
0.156890
0.076324
0.044097
0.027984
-0.004242
-0.012299
0.003814
-0.028412
-0.036469
-0.036469
-0.044526
-0.004242
-0.012299
-0.036469
-0.012299
-0.004242
0.003814
-0.012299
-0.004242
0.027984
-0.012299
0.036041
-0.020356
-0.004242
0.027984
0.019928
0.011871
0.003814
-0.012299
0.019928
0.011871
0.019928
-0.012299
-0.004242
0.036041
0.027984
0.003814
0.003814
-0.004242
0.011871
-0.012299
-0.028412
-0.036469
-0.012299
-0.012299
0.011871
-0.076752
-0.221772
-0.342621
-0.399018
-0.407074
-0.415131
-0.415131
-0.415131
-0.366791
-0.326508
-0.270111
-0.221772
-0.165375
-0.157319
-0.125092
-0.084809
-0.044526
-0.036469
-0.052582
-0.012299
-0.012299
-0.012299
0.011871
-0.004242
0.011871
0.003814
0.003814
0.003814
0.019928
0.027984
0.003814
-0.004242
-0.020356
-0.028412
-0.012299
-0.028412
-0.004242
0.003814
0.003814
-0.012299
0.003814
0.011871
-0.004242
0.011871
-0.028412
-0.020356
-0.020356
-0.036469
-0.044526
-0.028412
-0.012299
-0.036469
-0.036469
-0.044526
-0.036469
-0.052582
-0.060639
-0.036469
-0.028412
-0.028412
-0.020356
-0.068695
-0.020356
-0.028412
0.027984
0.156890
0.293853
0.342193
0.334137
0.374420
0.342193
0.366363
0.334137
0.301910
0.253570
0.197174
0.132721
0.132721
0.116607
0.092437
0.052154
0.011871
-0.028412
-0.004242
-0.036469
-0.012299
-0.012299
0.003814
-0.012299
-0.020356
-0.028412
-0.004242
-0.052582
-0.028412
-0.020356
-0.012299
-0.036469
-0.004242
-0.020356
-0.012299
-0.036469
-0.028412
-0.020356
-0.020356
-0.060639
0.068267
0.181060
0.245514
0.221344
0.229400
0.221344
0.189117
0.156890
0.124664
0.068267
0.044097
0.044097
0.036041
0.019928
-0.004242
0.003814
0.003814
0.019928
0.019928
0.019928
-0.012299
0.003814
0.003814
-0.044526
-0.221772
-0.302338
-0.366791
-0.374848
-0.390961
-0.390961
-0.415131
-0.350678
-0.310395
-0.213715
-0.205658
-0.133149
-0.125092
-0.092865
-0.084809
-0.052582
-0.076752
-0.036469
-0.028412
0.011871
-0.012299
-0.012299
-0.004242
-0.004242
-0.012299
0.027984
0.027984
0.011871
0.019928
0.027984
-0.012299
0.003814
-0.004242
-0.012299
0.011871
-0.020356
-0.028412
-0.020356
0.011871
-0.012299
-0.028412
-0.012299
-0.044526
0.003814
-0.020356
-0.036469
-0.028412
-0.012299
-0.036469
-0.036469
-0.036469
0.003814
-0.020356
-0.028412
-0.004242
-0.020356
-0.028412
0.027984
-0.044526
-0.028412
-0.028412
-0.036469
-0.036469
0.011871
0.164947
0.285797
0.309967
0.358306
0.374420
0.382476
0.374420
0.350250
0.326080
0.181060
0.173004
0.173004
0.084381
0.108551
0.076324
0.044097
0.036041
-0.012299
-0.028412
-0.036469
0.011871
-0.020356
-0.036469
-0.020356
-0.036469
-0.020356
-0.004242
-0.044526
-0.020356
-0.036469
0.003814
-0.004242
-0.028412
0.003814
-0.012299
-0.004242
-0.012299
-0.020356
-0.044526
-0.004242
-0.004242
-0.028412
0.011871
-0.020356
-0.004242
-0.004242
0.019928
-0.020356
-0.004242
-0.012299
0.003814
-0.004242
-0.012299
0.027984
0.027984
-0.028412
-0.012299
-0.012299
-0.012299
-0.004242
-0.004242
-0.020356
-0.012299
-0.060639
-0.205658
-0.245942
-0.189545
-0.133149
-0.157319
-0.141205
-0.205658
-0.197602
-0.165375
-0.108979
-0.060639
-0.076752
-0.068695
-0.052582
-0.044526
-0.060639
-0.068695
0.019928
-0.004242
-0.020356
0.019928
-0.028412
0.011871
0.060211
0.003814
0.036041
-0.012299
0.003814
0.019928
-0.012299
-0.004242
-0.004242
-0.028412
0.003814
-0.028412
-0.020356
0.011871
-0.012299
-0.020356
-0.036469
-0.012299
-0.028412
-0.052582
-0.004242
-0.004242
-0.028412
-0.012299
-0.036469
-0.036469
-0.012299
-0.044526
-0.052582
-0.012299
-0.020356
-0.004242
-0.004242
-0.020356
-0.036469
-0.012299
-0.020356
-0.060639
-0.052582
-0.044526
0.044097
0.189117
0.293853
0.334137
0.342193
0.398590
0.334137
0.358306
0.326080
0.261627
0.213287
0.181060
0.100494
0.116607
0.116607
0.108551
0.076324
-0.012299
0.011871
-0.020356
-0.028412
-0.028412
-0.036469
-0.012299
-0.012299
-0.028412
-0.028412
-0.036469
-0.036469
-0.004242
0.003814
0.011871
-0.012299
-0.036469
-0.020356
-0.020356
0.003814
-0.044526
-0.020356
-0.012299
-0.004242
-0.012299
-0.012299
0.003814
-0.004242
0.019928
0.011871
0.036041
0.027984
0.003814
-0.012299
-0.020356
0.019928
-0.004242
0.011871
-0.004242
-0.020356
-0.012299
0.011871
0.019928
0.027984
0.027984
-0.004242
0.003814
-0.028412
-0.181488
-0.326508
-0.366791
-0.415131
-0.407074
-0.390961
-0.366791
-0.399018
-0.302338
-0.237885
-0.213715
-0.165375
-0.141205
-0.084809
-0.068695
-0.068695
-0.076752
-0.004242
-0.004242
-0.004242
-0.004242
-0.012299
-0.020356
-0.028412
-0.036469
-0.036469
0.003814
-0.036469
-0.004242
0.027984
0.164947
0.237457
0.229400
0.221344
0.164947
0.156890
0.164947
0.108551
0.068267
0.060211
0.011871
0.019928
-0.004242
-0.012299
-0.020356
-0.028412
-0.004242
-0.028412
-0.068695
-0.052582
-0.052582
-0.044526
-0.020356
-0.028412
-0.052582
-0.036469
-0.004242
-0.044526
-0.044526
-0.060639
-0.028412
-0.036469
-0.044526
0.036041
0.181060
0.309967
0.342193
0.366363
0.350250
0.350250
0.334137
0.334137
0.277740
0.213287
0.140777
0.116607
0.116607
0.060211
0.084381
0.052154
-0.012299
-0.020356
-0.036469
-0.036469
-0.028412
-0.036469
-0.028412
-0.012299
0.011871
-0.012299
-0.020356
-0.020356
-0.004242
0.019928
-0.012299
-0.020356
0.003814
-0.012299
-0.028412
-0.020356
-0.020356
-0.036469
0.027984
-0.012299
-0.004242
-0.012299
0.003814
0.003814
-0.004242
-0.012299
-0.012299
0.011871
0.060211
0.027984
0.011871
0.019928
-0.028412
-0.020356
0.027984
0.003814
0.011871
-0.020356
-0.004242
-0.004242
-0.012299
-0.004242
0.036041
-0.060639
-0.189545
-0.302338
-0.358735
-0.374848
-0.415131
-0.399018
-0.374848
-0.350678
-0.310395
-0.262055
-0.149262
-0.149262
-0.149262
-0.133149
-0.076752
-0.076752
-0.068695
-0.020356
0.019928
0.003814
0.011871
-0.012299
-0.012299
0.003814
0.027984
-0.004242
0.036041
0.027984
-0.020356
-0.012299
-0.012299
-0.012299
0.011871
0.003814
-0.004242
-0.028412
-0.020356
0.011871
-0.004242
-0.044526
-0.028412
-0.036469
-0.036469
-0.020356
-0.044526
-0.028412
-0.028412
-0.028412
-0.028412
-0.052582
-0.012299
-0.068695
-0.012299
0.108551
0.221344
0.205230
0.197174
0.164947
0.197174
0.140777
0.108551
0.076324
0.044097
0.076324
0.245514
0.326080
0.350250
0.366363
0.358306
0.342193
0.366363
0.293853
0.269683
0.189117
0.148834
0.140777
0.092437
0.068267
0.068267
0.044097
0.011871
0.011871
0.027984
-0.012299
-0.020356
-0.004242
-0.028412
-0.052582
-0.036469
0.019928
-0.052582
-0.044526
-0.012299
-0.004242
-0.012299
-0.020356
-0.012299
-0.028412
-0.012299
-0.004242
0.011871
-0.028412
-0.012299
0.003814
-0.020356
0.044097
-0.020356
0.011871
0.003814
-0.028412
-0.012299
-0.028412
0.003814
0.003814
0.011871
0.027984
0.011871
0.011871
0.019928
0.003814
0.003814
0.003814
0.019928
0.003814
0.011871
0.019928
-0.004242
-0.076752
-0.253998
-0.342621
-0.366791
-0.350678
-0.407074
-0.407074
-0.366791
-0.374848
-0.294281
-0.237885
-0.173432
-0.165375
-0.149262
-0.092865
-0.092865
-0.052582
-0.052582
-0.028412
-0.004242
0.011871
-0.020356
0.003814
-0.012299
0.003814
0.019928
-0.012299
0.044097
0.027984
0.003814
0.011871
-0.012299
-0.036469
0.003814
-0.036469
-0.012299
0.019928
0.003814
0.003814
-0.036469
-0.028412
-0.028412
-0.036469
-0.004242
-0.036469
-0.012299
-0.044526
-0.068695
-0.028412
-0.036469
-0.052582
-0.028412
-0.020356
-0.012299
-0.068695
-0.028412
-0.036469
-0.028412
-0.020356
-0.028412
-0.028412
-0.044526
0.003814
-0.052582
0.068267
0.189117
0.293853
0.326080
0.309967
0.382476
0.374420
0.366363
0.342193
0.269683
0.205230
0.164947
0.148834
0.092437
0.084381
0.084381
0.036041
0.003814
-0.012299
0.060211
0.205230
0.245514
0.221344
0.221344
0.181060
0.148834
0.116607
0.116607
0.052154
-0.004242
0.027984
-0.012299
0.019928
0.003814
0.003814
0.011871
-0.012299
-0.028412
0.003814
0.011871
-0.004242
0.003814
-0.004242
-0.028412
-0.004242
0.036041
0.060211
0.011871
0.003814
-0.004242
0.003814
0.011871
0.027984
0.036041
0.044097
0.036041
0.019928
-0.044526
-0.012299
0.003814
-0.020356
0.019928
0.027984
-0.028412
-0.060639
-0.221772
-0.302338
-0.358735
-0.390961
-0.366791
-0.423188
-0.382904
-0.358735
-0.278168
-0.245942
-0.213715
-0.133149
-0.108979
-0.108979
-0.092865
-0.052582
-0.076752
-0.012299
-0.020356
0.019928
-0.036469
0.003814
-0.012299
-0.012299
0.019928
0.011871
0.019928
-0.012299
-0.004242
0.027984
0.003814
-0.044526
-0.020356
-0.028412
-0.028412
-0.028412
-0.012299
-0.012299
0.011871
-0.012299
0.003814
-0.004242
-0.044526
0.003814
-0.036469
-0.028412
-0.036469
-0.052582
-0.004242
-0.012299
-0.044526
-0.036469
-0.012299
-0.020356
-0.036469
-0.036469
-0.012299
-0.028412
-0.036469
-0.020356
-0.036469
-0.052582
-0.036469
0.019928
0.229400
0.293853
0.374420
0.334137
0.358306
0.374420
0.366363
0.326080
0.221344
0.221344
0.092437
0.132721
0.084381
0.076324
0.076324
0.027984
0.011871
-0.012299
-0.052582
-0.020356
0.027984
0.011871
-0.028412
-0.004242
-0.004242
-0.020356
-0.020356
-0.036469
0.019928
-0.028412
-0.052582
-0.028412
-0.036469
-0.012299
-0.036469
-0.012299
-0.012299
-0.004242
-0.004242
-0.020356
-0.028412
-0.044526
-0.036469
0.003814
0.181060
0.253570
0.245514
0.261627
0.221344
0.189117
0.156890
0.140777
0.068267
0.084381
0.076324
0.076324
0.052154
0.027984
-0.012299
0.003814
0.019928
0.011871
-0.004242
-0.060639
-0.229828
-0.310395
-0.366791
-0.342621
-0.399018
-0.374848
-0.366791
-0.334565
-0.262055
-0.221772
-0.165375
-0.133149
-0.100922
-0.117035
-0.084809
-0.084809
-0.060639
-0.012299
-0.028412
0.003814
0.019928
-0.020356
0.011871
0.027984
-0.004242
-0.020356
-0.012299
0.003814
-0.020356
-0.012299
0.011871
0.011871
-0.004242
-0.020356
-0.004242
-0.012299
-0.012299
-0.012299
-0.012299
-0.020356
-0.044526
-0.028412
-0.036469
-0.052582
0.003814
-0.028412
-0.028412
-0.036469
-0.052582
-0.020356
-0.028412
-0.012299
-0.012299
-0.044526
-0.028412
-0.036469
-0.004242
-0.012299
-0.028412
-0.036469
-0.020356
0.019928
-0.044526
0.068267
0.189117
0.326080
0.366363
0.366363
0.382476
0.374420
0.366363
0.309967
0.237457
0.221344
0.148834
0.084381
0.092437
0.052154
0.076324
0.011871
0.044097
-0.028412
-0.020356
-0.012299
-0.028412
-0.060639
-0.004242
-0.036469
-0.020356
0.036041
-0.044526
-0.044526
-0.028412
-0.036469
0.011871
0.011871
0.019928
-0.044526
-0.012299
0.003814
-0.004242
-0.004242
-0.004242
-0.012299
0.003814
-0.004242
0.027984
0.019928
0.019928
0.011871
-0.012299
0.011871
0.027984
0.044097
0.027984
-0.004242
-0.020356
0.027984
-0.020356
0.011871
0.044097
-0.004242
0.003814
-0.012299
0.011871
0.027984
0.011871
-0.092865
-0.262055
-0.334565
-0.374848
-0.390961
-0.423188
-0.439301
-0.407074
-0.350678
-0.165375
0.036041
0.108551
0.116607
0.116607
0.116607
0.100494
0.076324
0.092437
0.108551
0.108551
0.036041
0.044097
0.052154
0.036041
0.068267
-0.004242
0.011871
0.011871
-0.004242
0.019928
-0.020356
-0.020356
-0.028412
0.003814
-0.012299
-0.020356
-0.044526
-0.012299
-0.028412
-0.012299
-0.036469
-0.020356
-0.028412
-0.052582
-0.044526
-0.012299
-0.036469
-0.036469
-0.044526
-0.020356
-0.060639
-0.028412
-0.004242
-0.044526
-0.020356
-0.044526
-0.044526
-0.012299
-0.012299
-0.028412
0.019928
-0.044526
-0.036469
-0.044526
0.076324
0.221344
0.301910
0.350250
0.350250
0.350250
0.414703
0.350250
0.358306
0.245514
0.189117
0.173004
0.148834
0.092437
0.068267
0.076324
0.068267
0.003814
-0.020356
-0.052582
-0.044526
-0.004242
-0.028412
-0.020356
-0.052582
-0.028412
0.011871
0.027984
-0.004242
-0.052582
0.011871
-0.012299
0.011871
0.011871
-0.004242
0.003814
0.003814
-0.028412
0.003814
-0.020356
-0.012299
-0.012299
-0.012299
0.019928
-0.004242
-0.020356
0.027984
0.003814
0.003814
0.011871
0.011871
0.011871
0.003814
-0.028412
0.027984
-0.004242
-0.028412
-0.020356
0.019928
-0.004242
0.027984
0.003814
0.027984
-0.004242
-0.092865
-0.245942
-0.318451
-0.407074
-0.366791
-0.366791
-0.366791
-0.390961
-0.334565
-0.245942
-0.189545
-0.165375
-0.125092
-0.125092
-0.108979
-0.084809
-0.052582
-0.036469
-0.044526
-0.020356
0.003814
-0.028412
-0.020356
-0.020356
-0.004242
-0.020356
-0.004242
-0.004242
0.003814
-0.020356
-0.004242
0.003814
0.100494
0.229400
0.253570
0.213287
0.221344
0.189117
0.189117
0.124664
0.076324
0.036041
0.027984
0.027984
-0.004242
-0.028412
0.011871
-0.044526
-0.028412
-0.052582
-0.012299
-0.012299
-0.020356
-0.020356
-0.028412
-0.036469
-0.060639
-0.028412
-0.036469
-0.020356
-0.004242
-0.012299
0.019928
-0.020356
0.100494
0.229400
0.301910
0.334137
0.334137
0.374420
0.342193
0.382476
0.309967
0.221344
0.156890
0.100494
0.116607
0.108551
0.027984
0.052154
0.036041
-0.020356
-0.012299
-0.020356
-0.020356
-0.044526
-0.036469
-0.012299
-0.044526
-0.052582
-0.036469
-0.044526
0.011871
-0.012299
-0.012299
0.011871
-0.020356
-0.020356
0.003814
-0.020356
0.036041
0.019928
-0.012299
0.044097
0.011871
-0.012299
0.027984
0.019928
0.019928
0.027984
0.011871
0.019928
-0.004242
-0.020356
-0.028412
0.011871
0.036041
0.019928
0.003814
0.019928
0.011871
0.011871
-0.004242
0.011871
0.003814
0.003814
0.003814
0.003814
-0.092865
-0.245942
-0.326508
-0.358735
-0.350678
-0.382904
-0.382904
-0.342621
-0.326508
-0.245942
-0.205658
-0.173432
-0.149262
-0.100922
-0.076752
-0.084809
-0.052582
-0.020356
-0.028412
-0.020356
0.011871
-0.004242
0.003814
0.011871
-0.020356
0.011871
-0.012299
-0.036469
-0.004242
-0.020356
0.036041
0.011871
0.019928
-0.028412
-0.004242
0.044097
-0.004242
-0.012299
-0.004242
0.019928
-0.004242
-0.012299
-0.020356
0.011871
-0.012299
0.003814
-0.036469
-0.044526
-0.012299
-0.052582
-0.028412
-0.028412
-0.044526
-0.028412
-0.044526
-0.004242
-0.036469
-0.036469
-0.052582
-0.052582
-0.012299
0.011871
0.140777
0.221344
0.334137
0.479156
0.559722
0.551666
0.511383
0.495269
0.479156
0.446930
0.318023
0.253570
0.197174
0.205230
0.116607
0.092437
0.108551
0.068267
0.044097
0.027984
0.036041
-0.012299
-0.012299
-0.012299
-0.036469
-0.044526
-0.028412
0.019928
-0.028412
-0.012299
-0.020356
-0.028412
-0.020356
0.003814
-0.012299
-0.012299
-0.012299
-0.036469
0.003814
-0.004242
-0.036469
-0.028412
-0.020356
-0.036469
-0.004242
-0.028412
-0.012299
-0.004242
-0.004242
0.027984
0.011871
-0.004242
0.003814
0.019928
0.027984
-0.004242
-0.004242
0.003814
0.036041
0.011871
0.003814
-0.004242
0.036041
0.027984
0.003814
0.011871
-0.092865
-0.245942
-0.302338
-0.374848
-0.407074
-0.399018
-0.431244
-0.382904
-0.310395
-0.213715
-0.173432
-0.189545
-0.149262
-0.092865
-0.092865
-0.092865
-0.052582
-0.044526
0.003814
-0.028412
0.019928
0.003814
0.003814
0.036041
-0.012299
-0.028412
0.003814
-0.020356
0.003814
-0.012299
-0.004242
0.027984
-0.004242
0.019928
-0.020356
-0.020356
0.003814
0.027984
-0.028412
-0.004242
-0.012299
-0.004242
-0.004242
-0.036469
-0.036469
-0.052582
-0.004242
-0.044526
-0.004242
0.003814
-0.028412
-0.004242
-0.044526
-0.012299
-0.012299
0.003814
-0.020356
0.003814
-0.044526
-0.044526
-0.012299
-0.012299
-0.012299
0.019928
0.140777
0.293853
0.301910
0.374420
0.382476
0.350250
0.358306
0.342193
0.293853
0.205230
0.205230
0.140777
0.092437
0.060211
0.068267
0.036041
0.019928
0.011871
-0.020356
-0.004242
-0.052582
-0.036469
-0.020356
0.108551
0.221344
0.213287
0.229400
0.164947
0.173004
0.140777
0.140777
0.060211
0.076324
0.027984
0.019928
0.027984
0.011871
-0.036469
-0.012299
-0.004242
-0.012299
0.003814
0.011871
0.019928
0.019928
-0.020356
0.027984
0.011871
0.052154
0.011871
0.036041
0.003814
-0.028412
0.003814
-0.012299
0.011871
0.019928
0.003814
0.019928
-0.028412
0.019928
0.027984
0.011871
0.011871
-0.100922
-0.262055
-0.318451
-0.350678
-0.415131
-0.374848
-0.399018
-0.358735
-0.350678
-0.245942
-0.213715
-0.197602
-0.125092
-0.117035
-0.084809
-0.084809
-0.012299
-0.020356
0.019928
0.003814
-0.012299
-0.012299
-0.012299
0.011871
-0.012299
-0.004242
-0.012299
-0.012299
-0.004242
0.003814
-0.028412
-0.020356
-0.012299
-0.020356
-0.012299
-0.020356
0.019928
-0.004242
-0.012299
-0.020356
-0.012299
0.003814
-0.004242
-0.012299
-0.004242
-0.044526
-0.028412
-0.012299
0.003814
-0.020356
-0.028412
-0.020356
-0.020356
-0.028412
0.011871
-0.028412
-0.012299
0.019928
-0.028412
0.003814
-0.044526
-0.044526
-0.020356
-0.020356
0.124664
0.245514
0.342193
0.366363
0.382476
0.414703
0.350250
0.350250
0.285797
0.213287
0.181060
0.100494
0.092437
0.076324
0.076324
0.060211
-0.012299
0.027984
-0.020356
-0.012299
-0.004242
-0.044526
0.003814
0.003814
-0.020356
-0.020356
-0.044526
-0.036469
-0.012299
-0.044526
-0.052582
-0.036469
-0.020356
-0.020356
-0.012299
0.003814
-0.020356
0.011871
-0.020356
-0.012299
-0.044526
-0.044526
-0.004242
0.019928
-0.028412
-0.012299
0.003814
-0.004242
-0.020356
-0.044526
-0.004242
0.124664
0.253570
0.253570
0.237457
0.253570
0.213287
0.181060
0.148834
0.181060
0.124664
0.108551
0.052154
0.011871
-0.125092
-0.278168
-0.358735
-0.350678
-0.390961
-0.334565
-0.358735
-0.342621
-0.302338
-0.278168
-0.197602
-0.181488
-0.141205
-0.117035
-0.092865
-0.084809
-0.052582
-0.044526
-0.028412
0.003814
0.003814
-0.012299
0.003814
-0.020356
0.003814
-0.004242
-0.020356
-0.004242
-0.020356
0.003814
-0.004242
0.003814
0.027984
0.019928
-0.020356
-0.004242
0.003814
0.003814
-0.012299
0.003814
-0.036469
-0.036469
-0.028412
-0.020356
-0.044526
-0.044526
-0.044526
-0.020356
-0.028412
-0.020356
-0.044526
-0.036469
-0.028412
-0.012299
0.003814
-0.044526
-0.060639
-0.004242
-0.020356
0.027984
-0.020356
0.003814
0.003814
0.011871
0.132721
0.261627
0.309967
0.358306
0.366363
0.374420
0.366363
0.358306
0.277740
0.229400
0.148834
0.116607
0.100494
0.076324
0.052154
0.052154
0.011871
0.036041
-0.012299
-0.028412
-0.012299
-0.036469
-0.028412
-0.044526
-0.012299
-0.028412
-0.012299
-0.028412
-0.028412
-0.044526
0.011871
-0.020356
-0.028412
-0.020356
-0.020356
-0.012299
-0.044526
0.003814
-0.004242
-0.004242
0.003814
-0.012299
-0.020356
-0.020356
0.003814
-0.004242
-0.028412
0.027984
-0.044526
0.052154
0.003814
0.003814
0.019928
-0.004242
0.003814
0.003814
0.011871
0.003814
0.011871
0.044097
-0.012299
0.003814
0.027984
-0.012299
-0.189545
-0.302338
-0.326508
-0.382904
-0.407074
-0.407074
-0.415131
-0.358735
-0.350678
-0.237885
-0.060639
0.084381
0.100494
0.116607
0.140777
0.100494
0.108551
0.124664
0.100494
0.092437
0.076324
0.052154
0.019928
0.011871
0.011871
0.003814
0.003814
-0.004242
-0.020356
-0.020356
-0.020356
-0.004242
-0.012299
-0.044526
-0.012299
0.003814
-0.036469
-0.028412
0.003814
-0.004242
-0.004242
0.003814
-0.044526
-0.020356
-0.012299
-0.012299
-0.020356
-0.020356
0.003814
-0.060639
-0.052582
-0.036469
-0.036469
-0.028412
-0.028412
0.019928
-0.004242
-0.052582
-0.028412
-0.036469
-0.036469
-0.036469
-0.060639
0.011871
0.148834
0.269683
0.318023
0.326080
0.374420
0.366363
0.350250
0.398590
0.301910
0.205230
0.213287
0.108551
0.092437
0.068267
0.044097
0.036041
0.044097
0.003814
0.036041
0.003814
-0.036469
-0.028412
-0.044526
-0.012299
-0.020356
-0.052582
-0.044526
-0.028412
0.003814
-0.012299
-0.020356
-0.036469
-0.036469
-0.004242
0.003814
-0.052582
-0.020356
-0.012299
-0.020356
0.011871
0.036041
-0.020356
0.011871
0.003814
0.044097
0.027984
0.011871
0.003814
0.019928
-0.004242
0.027984
-0.004242
-0.020356
0.027984
-0.012299
0.027984
-0.012299
-0.004242
0.003814
0.011871
0.044097
-0.004242
0.011871
-0.044526
-0.173432
-0.286225
-0.350678
-0.399018
-0.374848
-0.423188
-0.382904
-0.358735
-0.350678
-0.245942
-0.181488
-0.165375
-0.125092
-0.084809
-0.052582
-0.076752
-0.052582
-0.012299
-0.044526
0.003814
-0.004242
-0.004242
0.003814
0.003814
-0.004242
0.003814
0.027984
-0.028412
0.003814
-0.012299
-0.020356
-0.036469
-0.028412
-0.028412
-0.004242
-0.028412
-0.060639
-0.028412
-0.036469
-0.012299
0.124664
0.197174
0.205230
0.213287
0.148834
0.148834
0.116607
0.108551
0.044097
0.027984
0.036041
0.003814
-0.004242
-0.020356
-0.004242
0.003814
-0.020356
-0.028412
-0.012299
-0.036469
-0.020356
-0.044526
-0.020356
0.027984
0.140777
0.245514
0.301910
0.342193
0.334137
0.350250
0.358306
0.326080
0.269683
0.173004
0.181060
0.132721
0.084381
0.068267
0.027984
0.076324
0.044097
-0.012299
-0.020356
-0.004242
-0.004242
-0.020356
-0.020356
-0.028412
-0.012299
-0.036469
-0.012299
-0.052582
-0.044526
-0.036469
-0.052582
-0.020356
0.027984
-0.020356
-0.004242
-0.020356
0.019928
0.003814
-0.004242
0.019928
-0.028412
-0.004242
0.011871
0.011871
-0.012299
-0.020356
0.011871
0.003814
-0.012299
-0.012299
0.027984
-0.012299
-0.012299
0.019928
-0.004242
-0.004242
0.011871
-0.004242
0.027984
0.003814
0.019928
0.036041
0.019928
-0.052582
-0.181488
-0.286225
-0.318451
-0.399018
-0.382904
-0.399018
-0.390961
-0.366791
-0.302338
-0.253998
-0.181488
-0.117035
-0.092865
-0.092865
-0.068695
-0.044526
-0.044526
-0.028412
-0.052582
0.003814
-0.012299
0.027984
0.011871
-0.020356
-0.020356
-0.004242
-0.004242
0.019928
0.003814
0.044097
0.003814
-0.020356
-0.012299
-0.004242
0.011871
0.011871
0.003814
-0.028412
-0.012299
-0.052582
-0.020356
-0.028412
-0.036469
-0.012299
-0.012299
-0.036469
-0.020356
-0.044526
-0.044526
-0.044526
-0.036469
-0.052582
-0.052582
-0.020356
-0.044526
-0.068695
-0.052582
-0.052582
-0.068695
-0.060639
-0.068695
-0.060639
-0.020356
0.003814
0.132721
0.398590
0.519439
0.575836
0.600006
0.583892
0.567779
0.503326
0.398590
0.309967
0.205230
0.140777
0.132721
0.100494
0.084381
0.060211
0.044097
0.027984
-0.004242
-0.028412
-0.020356
-0.012299
0.003814
-0.028412
-0.020356
-0.012299
0.003814
-0.044526
-0.052582
-0.012299
-0.012299
0.027984
-0.012299
-0.044526
-0.004242
-0.012299
0.011871
-0.020356
0.019928
-0.004242
-0.036469
0.019928
0.011871
0.019928
0.011871
0.011871
0.019928
-0.004242
0.011871
-0.028412
0.019928
0.027984
0.036041
0.019928
-0.004242
-0.004242
0.019928
0.011871
0.027984
-0.012299
-0.004242
0.003814
-0.020356
-0.028412
-0.189545
-0.318451
-0.374848
-0.374848
-0.382904
-0.390961
-0.382904
-0.318451
-0.302338
-0.237885
-0.165375
-0.125092
-0.125092
-0.092865
-0.060639
-0.076752
-0.036469
0.011871
-0.020356
-0.012299
-0.004242
0.019928
0.052154
0.036041
0.019928
-0.004242
-0.036469
-0.044526
0.011871
-0.020356
-0.028412
0.027984
0.003814
0.011871
-0.020356
-0.036469
-0.004242
-0.036469
0.003814
0.003814
-0.020356
-0.012299
-0.020356
-0.004242
-0.020356
0.003814
-0.004242
0.003814
0.019928
-0.020356
-0.020356
-0.020356
0.011871
-0.012299
-0.020356
-0.020356
-0.028412
-0.028412
-0.020356
0.003814
-0.020356
-0.036469
-0.020356
0.027984
0.156890
0.285797
0.318023
0.374420
0.358306
0.382476
0.350250
0.342193
0.269683
0.229400
0.164947
0.116607
0.108551
0.084381
0.076324
0.060211
0.019928
-0.012299
-0.020356
-0.044526
-0.028412
-0.020356
-0.044526
-0.052582
-0.020356
-0.012299
-0.044526
-0.036469
-0.028412
0.076324
0.173004
0.197174
0.205230
0.205230
0.181060
0.164947
0.156890
0.156890
0.140777
0.084381
0.068267
0.036041
0.036041
0.027984
-0.004242
0.011871
0.044097
0.019928
0.011871
0.011871
0.003814
0.003814
0.036041
0.003814
-0.012299
0.011871
0.003814
0.036041
0.027984
-0.012299
-0.004242
0.003814
-0.012299
-0.044526
-0.229828
-0.294281
-0.326508
-0.334565
-0.390961
-0.399018
-0.390961
-0.358735
-0.302338
-0.237885
-0.149262
-0.165375
-0.117035
-0.084809
-0.092865
-0.068695
-0.036469
0.003814
0.011871
0.019928
0.011871
0.044097
0.019928
-0.012299
-0.004242
0.019928
0.003814
-0.012299
0.019928
0.011871
0.019928
0.011871
0.003814
-0.020356
-0.004242
0.019928
0.019928
0.003814
-0.012299
-0.044526
-0.012299
0.003814
-0.004242
-0.044526
-0.020356
-0.028412
-0.012299
-0.012299
-0.020356
-0.020356
-0.020356
-0.028412
-0.028412
-0.052582
-0.012299
-0.012299
-0.028412
-0.004242
-0.020356
-0.020356
0.003814
-0.052582
-0.020356
0.027984
0.213287
0.293853
0.350250
0.390533
0.350250
0.406646
0.358306
0.309967
0.285797
0.221344
0.164947
0.132721
0.108551
0.108551
0.052154
0.036041
0.003814
0.019928
0.019928
0.003814
-0.020356
-0.060639
-0.028412
-0.020356
0.003814
-0.044526
-0.012299
-0.028412
-0.028412
-0.036469
0.019928
-0.004242
0.003814
-0.004242
0.019928
-0.012299
-0.028412
0.003814
-0.020356
-0.036469
-0.004242
-0.004242
-0.012299
-0.004242
-0.012299
0.019928
0.003814
-0.004242
0.003814
-0.028412
-0.012299
0.003814
0.100494
0.221344
0.229400
0.221344
0.237457
0.229400
0.197174
0.148834
0.116607
0.116607
0.076324
-0.012299
-0.197602
-0.302338
-0.366791
-0.350678
-0.350678
-0.407074
-0.358735
-0.334565
-0.302338
-0.221772
-0.165375
-0.165375
-0.108979
-0.117035
-0.092865
-0.076752
-0.020356
-0.052582
-0.020356
0.003814
0.011871
-0.004242
0.003814
0.027984
0.003814
-0.036469
-0.020356
-0.012299
-0.004242
0.003814
0.003814
-0.004242
-0.004242
0.011871
0.003814
0.011871
-0.012299
-0.028412
-0.052582
-0.036469
-0.036469
-0.068695
-0.028412
-0.028412
-0.020356
-0.004242
-0.012299
-0.028412
-0.028412
-0.028412
-0.028412
-0.036469
-0.044526
-0.036469
-0.020356
-0.044526
-0.004242
-0.044526
-0.036469
-0.012299
-0.052582
-0.028412
-0.052582
0.019928
0.181060
0.318023
0.366363
0.350250
0.366363
0.374420
0.342193
0.326080
0.237457
0.189117
0.156890
0.116607
0.084381
0.076324
0.084381
0.060211
-0.004242
-0.004242
-0.036469
0.003814
0.019928
-0.028412
-0.004242
-0.028412
0.011871
-0.020356
-0.004242
-0.020356
0.003814
-0.004242
-0.060639
-0.004242
0.011871
-0.004242
-0.020356
-0.012299
