-1.317083
-1.276800
-0.688665
-0.334173
-0.189154
-0.068304
-0.060248
-0.028021
-0.019964
-0.019964
-0.036078
-0.011908
-0.044134
-0.011908
-0.011908
-0.003851
-0.011908
-0.036078
0.012262
0.052545
0.213678
0.310358
0.398981
0.487604
0.592340
0.592340
0.519831
0.447321
0.439264
0.423151
0.374811
0.334528
0.358698
0.358698
0.423151
0.407038
0.407038
0.318415
0.237848
0.237848
0.213678
0.197565
0.149225
0.133112
0.125055
0.125055
0.133112
0.028376
0.028376
0.012262
-0.011908
-0.044134
-0.003851
-0.011908
-0.044134
-0.028021
-0.019964
-0.011908
0.036432
0.012262
-0.011908
0.012262
0.004206
0.060602
0.020319
0.020319
0.060602
0.052545
0.068659
0.020319
0.036432
0.052545
0.060602
0.012262
0.052545
0.036432
0.004206
0.052545
0.020319
0.028376
0.044489
0.044489
0.044489
0.028376
0.004206
0.036432
-0.052191
-0.310003
-0.535589
-0.632269
-0.624212
-0.575873
-0.583929
-0.583929
-0.551703
-0.535589
-0.487249
-0.495306
-0.503363
-0.463080
-0.479193
-0.366400
-0.301947
-0.237494
-0.189154
-0.205267
-0.205267
-0.156927
-0.140814
-0.116644
-0.084417
-0.060248
-0.028021
-0.003851
-0.003851
-0.003851
0.012262
0.012262
-0.028021
0.012262
0.004206
-0.003851
0.020319
-0.003851
-0.028021
0.004206
-0.036078
-0.011908
-0.028021
-0.019964
-0.028021
-0.036078
-0.052191
-0.011908
-0.044134
-0.052191
-0.003851
-0.044134
-0.011908
0.004206
-0.019964
0.133112
0.189508
0.181452
0.157282
0.149225
0.125055
0.141169
0.133112
0.149225
0.052545
0.036432
0.092829
0.318415
0.455377
0.495661
0.479547
0.487604
0.455377
0.471491
0.407038
0.423151
0.407038
0.374811
0.342585
0.302301
0.262018
0.245905
0.165338
0.141169
0.108942
0.092829
0.076715
0.060602
0.044489
0.012262
-0.003851
-0.028021
-0.060248
-0.036078
-0.028021
-0.028021
-0.028021
-0.019964
-0.052191
-0.036078
-0.011908
-0.003851
-0.003851
-0.011908
0.028376
0.020319
0.028376
0.028376
0.004206
-0.019964
0.028376
0.020319
0.036432
0.044489
0.028376
0.044489
0.036432
0.052545
0.004206
0.044489
0.068659
0.004206
0.012262
0.052545
0.036432
0.012262
0.044489
0.012262
0.036432
-0.003851
-0.003851
0.036432
-0.036078
-0.181097
-0.358343
-0.414740
-0.438910
-0.382513
-0.414740
-0.422796
-0.398626
-0.390570
-0.358343
-0.293890
-0.221380
-0.132757
-0.140814
-0.116644
-0.108587
-0.084417
-0.068304
-0.060248
-0.044134
-0.036078
-0.003851
0.020319
0.020319
-0.019964
0.020319
0.012262
0.004206
0.020319
-0.003851
-0.003851
0.004206
0.004206
-0.028021
0.028376
-0.011908
0.004206
-0.011908
-0.011908
-0.028021
-0.011908
-0.003851
0.020319
-0.011908
-0.003851
-0.003851
-0.028021
-0.019964
-0.019964
-0.028021
-0.036078
-0.019964
0.004206
-0.003851
-0.044134
-0.044134
0.012262
0.004206
-0.028021
-0.028021
-0.036078
-0.052191
-0.044134
-0.044134
0.052545
0.197565
0.318415
0.374811
0.342585
0.342585
0.358698
0.342585
0.302301
0.294245
0.229792
0.173395
0.149225
0.125055
0.262018
0.318415
0.334528
0.270075
0.253961
0.245905
0.181452
0.133112
0.084772
0.060602
0.012262
0.060602
0.060602
0.036432
0.012262
-0.003851
0.012262
0.004206
-0.028021
-0.019964
-0.044134
0.012262
0.020319
-0.019964
-0.003851
0.004206
0.012262
0.004206
-0.003851
0.012262
-0.011908
0.036432
0.012262
0.028376
0.012262
0.020319
0.068659
0.028376
0.020319
0.020319
0.036432
0.028376
0.020319
0.060602
0.028376
0.012262
0.020319
0.020319
0.020319
0.020319
-0.003851
-0.173040
-0.342230
-0.358343
-0.358343
-0.382513
-0.382513
-0.374456
-0.406683
-0.334173
-0.269720
-0.229437
-0.173040
-0.132757
-0.108587
-0.108587
-0.060248
-0.060248
-0.036078
-0.028021
0.052545
0.012262
0.012262
0.012262
0.004206
0.052545
0.036432
0.020319
0.004206
0.012262
-0.019964
0.012262
-0.011908
-0.036078
0.012262
-0.044134
-0.003851
0.020319
-0.011908
-0.036078
-0.019964
-0.011908
-0.044134
-0.044134
-0.003851
-0.003851
-0.011908
-0.019964
-0.060248
-0.028021
-0.011908
-0.036078
-0.019964
-0.036078
-0.028021
-0.028021
-0.044134
-0.028021
-0.019964
0.012262
-0.011908
-0.044134
-0.052191
-0.036078
-0.011908
0.092829
0.253961
0.318415
0.374811
0.358698
0.342585
0.382868
0.358698
0.334528
0.237848
0.181452
0.165338
0.133112
0.084772
0.068659
0.108942
0.004206
0.020319
-0.019964
0.004206
-0.044134
-0.028021
-0.011908
-0.036078
0.004206
-0.068304
-0.044134
-0.019964
-0.019964
-0.003851
-0.052191
-0.044134
-0.036078
-0.003851
-0.019964
-0.003851
0.116999
0.197565
0.229792
0.229792
0.221735
0.189508
0.149225
0.116999
0.084772
0.076715
0.084772
0.028376
0.020319
0.052545
0.004206
0.020319
0.004206
0.004206
0.044489
0.020319
0.004206
0.028376
0.020319
0.020319
0.028376
0.052545
0.028376
-0.011908
-0.116644
-0.277777
-0.334173
-0.358343
-0.374456
-0.406683
-0.390570
-0.422796
-0.358343
-0.301947
-0.237494
-0.173040
-0.148871
-0.084417
-0.124701
-0.060248
-0.084417
-0.011908
-0.028021
-0.019964
-0.003851
-0.028021
-0.011908
-0.011908
-0.003851
0.028376
0.004206
-0.003851
-0.003851
-0.011908
0.012262
-0.003851
-0.003851
0.004206
-0.011908
0.044489
0.012262
0.012262
0.004206
-0.011908
-0.011908
-0.003851
-0.028021
-0.028021
0.028376
-0.003851
-0.019964
-0.003851
-0.011908
-0.011908
-0.019964
-0.011908
-0.036078
-0.036078
-0.060248
-0.019964
-0.019964
0.004206
-0.011908
-0.019964
-0.028021
-0.044134
-0.011908
-0.044134
0.100885
0.253961
0.318415
0.334528
0.358698
0.358698
0.398981
0.382868
0.302301
0.253961
0.189508
0.165338
0.141169
0.052545
0.084772
0.092829
0.036432
0.012262
0.020319
-0.044134
0.012262
0.004206
-0.052191
-0.052191
-0.019964
-0.028021
-0.003851
-0.003851
-0.011908
0.012262
-0.028021
-0.036078
0.036432
-0.011908
0.020319
-0.028021
0.036432
0.012262
0.004206
-0.011908
-0.003851
0.044489
0.060602
0.012262
0.012262
0.052545
-0.003851
0.020319
0.004206
0.012262
0.028376
-0.011908
0.012262
0.044489
0.004206
-0.019964
0.012262
0.020319
-0.019964
0.004206
-0.003851
-0.036078
-0.019964
-0.011908
-0.148871
-0.269720
-0.173040
-0.140814
-0.164984
-0.116644
-0.197210
-0.181097
-0.116644
-0.116644
-0.076361
-0.068304
-0.060248
-0.052191
-0.060248
-0.044134
-0.044134
-0.036078
-0.036078
0.012262
-0.028021
0.028376
-0.003851
0.020319
0.012262
0.004206
-0.003851
0.004206
0.028376
0.020319
-0.036078
-0.011908
-0.019964
-0.019964
0.012262
-0.003851
-0.011908
-0.028021
-0.003851
-0.028021
-0.003851
0.004206
-0.028021
-0.003851
-0.044134
-0.011908
-0.028021
-0.028021
-0.044134
-0.036078
-0.003851
-0.011908
-0.011908
-0.011908
-0.052191
0.012262
-0.036078
-0.003851
-0.036078
-0.003851
-0.019964
-0.028021
-0.028021
-0.044134
0.116999
0.278131
0.342585
0.342585
0.318415
0.390924
0.358698
0.334528
0.294245
0.237848
0.173395
0.125055
0.149225
0.076715
0.076715
0.076715
0.036432
0.020319
0.004206
-0.044134
-0.011908
-0.011908
-0.036078
-0.011908
-0.011908
0.004206
-0.036078
-0.003851
-0.003851
-0.019964
-0.019964
-0.028021
-0.011908
0.004206
0.004206
0.028376
-0.011908
-0.003851
-0.019964
-0.036078
-0.019964
0.044489
0.004206
0.012262
0.020319
0.020319
0.012262
0.044489
0.012262
-0.011908
-0.011908
0.004206
-0.011908
0.004206
0.012262
0.020319
-0.019964
0.012262
-0.011908
-0.003851
-0.011908
0.036432
0.012262
-0.011908
-0.132757
-0.285833
-0.342230
-0.374456
-0.334173
-0.406683
-0.366400
-0.430853
-0.350287
-0.293890
-0.229437
-0.164984
-0.116644
-0.140814
-0.124701
-0.068304
-0.044134
-0.060248
-0.019964
0.004206
-0.011908
0.036432
0.004206
0.004206
-0.028021
-0.011908
0.028376
0.141169
0.253961
0.262018
0.245905
0.221735
0.197565
0.165338
0.141169
0.108942
0.092829
0.012262
0.036432
-0.011908
0.004206
0.036432
0.004206
0.004206
-0.011908
-0.019964
-0.028021
-0.036078
-0.028021
-0.003851
0.020319
-0.044134
-0.019964
-0.036078
-0.044134
-0.028021
-0.011908
0.004206
-0.052191
0.012262
-0.019964
-0.011908
-0.044134
-0.036078
0.044489
0.237848
0.318415
0.326471
0.358698
0.326471
0.358698
0.318415
0.326471
0.221735
0.173395
0.133112
0.084772
0.076715
0.068659
0.100885
0.020319
0.012262
-0.019964
-0.019964
-0.052191
-0.019964
-0.019964
-0.036078
-0.044134
0.028376
-0.003851
-0.011908
-0.019964
-0.003851
-0.028021
-0.011908
-0.028021
0.012262
-0.011908
-0.019964
-0.003851
-0.028021
0.020319
0.020319
-0.011908
0.028376
0.028376
-0.011908
0.012262
0.012262
-0.011908
0.020319
-0.003851
0.036432
0.012262
0.020319
0.060602
0.020319
0.028376
-0.019964
0.012262
0.004206
0.012262
0.044489
0.028376
0.020319
-0.011908
0.012262
-0.132757
-0.261664
-0.301947
-0.390570
-0.390570
-0.414740
-0.414740
-0.366400
-0.342230
-0.221380
-0.229437
-0.164984
-0.140814
-0.132757
-0.084417
-0.092474
-0.044134
-0.036078
-0.028021
-0.028021
-0.011908
-0.003851
0.012262
0.020319
-0.011908
-0.019964
-0.011908
-0.003851
-0.011908
-0.011908
-0.011908
0.012262
-0.052191
-0.019964
0.012262
-0.028021
-0.028021
0.004206
-0.028021
-0.011908
-0.019964
-0.019964
-0.019964
-0.028021
-0.036078
-0.011908
-0.011908
-0.028021
-0.060248
-0.044134
-0.068304
-0.044134
-0.060248
-0.036078
-0.060248
0.052545
0.165338
0.253961
0.205622
0.181452
0.173395
0.149225
0.125055
0.092829
0.149225
0.294245
0.374811
0.358698
0.390924
0.366754
0.382868
0.358698
0.334528
0.237848
0.173395
0.133112
0.133112
0.100885
0.076715
0.020319
0.012262
0.012262
0.004206
-0.028021
-0.019964
-0.028021
-0.019964
0.004206
-0.044134
-0.060248
-0.028021
-0.011908
-0.019964
-0.028021
-0.011908
-0.036078
-0.011908
-0.028021
0.036432
-0.011908
-0.003851
-0.003851
0.012262
0.028376
0.028376
0.004206
0.028376
0.004206
-0.003851
-0.011908
0.004206
0.004206
0.012262
0.028376
0.020319
0.036432
0.020319
0.020319
0.044489
-0.011908
0.020319
0.012262
0.012262
0.044489
0.076715
0.036432
0.012262
0.028376
-0.108587
-0.237494
-0.342230
-0.350287
-0.382513
-0.382513
-0.390570
-0.382513
-0.350287
-0.285833
-0.197210
-0.148871
-0.116644
-0.140814
-0.076361
-0.092474
-0.052191
-0.044134
-0.028021
0.004206
-0.011908
0.020319
-0.011908
0.004206
0.036432
-0.003851
0.012262
0.028376
0.044489
0.012262
0.004206
0.020319
0.028376
0.012262
-0.003851
-0.011908
-0.003851
-0.003851
0.028376
-0.019964
-0.036078
-0.052191
-0.028021
-0.011908
0.004206
-0.019964
-0.003851
-0.036078
-0.019964
0.012262
-0.003851
-0.052191
-0.036078
0.012262
-0.036078
-0.044134
-0.028021
-0.044134
-0.044134
-0.003851
-0.019964
-0.044134
-0.028021
-0.044134
0.076715
0.253961
0.294245
0.358698
0.358698
0.334528
0.358698
0.350641
0.310358
0.262018
0.165338
0.141169
0.100885
0.052545
0.100885
0.221735
0.302301
0.221735
0.205622
0.229792
0.173395
0.108942
0.068659
0.052545
0.028376
-0.044134
-0.011908
0.012262
-0.003851
-0.019964
-0.019964
0.028376
-0.011908
-0.044134
-0.003851
0.020319
-0.011908
-0.003851
-0.019964
-0.028021
-0.003851
-0.036078
0.036432
-0.019964
0.004206
0.012262
-0.011908
-0.003851
-0.003851
0.012262
-0.011908
0.020319
0.028376
0.020319
0.012262
0.028376
-0.003851
0.004206
-0.003851
0.004206
0.060602
0.060602
0.012262
0.004206
-0.092474
-0.277777
-0.358343
-0.350287
-0.358343
-0.382513
-0.406683
-0.366400
-0.326117
-0.253607
-0.189154
-0.148871
-0.148871
-0.100531
-0.068304
-0.084417
-0.036078
-0.028021
-0.019964
0.028376
0.012262
0.012262
0.012262
0.004206
-0.028021
0.004206
0.020319
0.004206
-0.019964
0.004206
0.036432
0.012262
-0.011908
0.004206
-0.011908
-0.011908
-0.011908
-0.011908
-0.019964
0.004206
-0.003851
-0.011908
-0.028021
0.004206
-0.019964
-0.019964
-0.003851
-0.060248
-0.019964
-0.036078
-0.044134
-0.044134
-0.060248
-0.044134
-0.028021
-0.036078
-0.011908
-0.019964
-0.028021
-0.028021
0.028376
0.004206
-0.011908
-0.011908
0.092829
0.245905
0.334528
0.358698
0.374811
0.398981
0.350641
0.350641
0.342585
0.253961
0.181452
0.116999
0.108942
0.076715
0.052545
0.052545
0.044489
0.028376
-0.028021
-0.011908
-0.003851
-0.044134
-0.019964
-0.044134
-0.060248
-0.028021
-0.011908
-0.019964
-0.011908
-0.028021
-0.052191
0.004206
0.012262
-0.028021
-0.019964
-0.003851
-0.052191
-0.028021
-0.036078
0.004206
-0.028021
0.012262
-0.003851
-0.019964
0.100885
0.205622
0.221735
0.262018
0.229792
0.221735
0.205622
0.197565
0.125055
0.116999
0.084772
0.052545
0.036432
0.028376
0.028376
0.004206
0.012262
0.036432
0.020319
-0.028021
-0.100531
-0.285833
-0.350287
-0.366400
-0.430853
-0.398626
-0.398626
-0.366400
-0.342230
-0.293890
-0.245550
-0.164984
-0.148871
-0.116644
-0.108587
-0.044134
-0.036078
-0.028021
0.012262
-0.019964
-0.011908
-0.003851
-0.003851
0.036432
0.004206
-0.019964
0.004206
-0.019964
-0.011908
0.020319
0.004206
0.012262
-0.019964
-0.036078
-0.019964
-0.028021
-0.036078
-0.044134
-0.019964
-0.019964
-0.036078
0.004206
-0.019964
-0.036078
-0.028021
-0.011908
-0.036078
-0.044134
-0.044134
-0.052191
-0.036078
-0.028021
-0.011908
-0.019964
0.012262
0.004206
-0.028021
-0.028021
-0.052191
-0.028021
-0.011908
-0.003851
-0.011908
-0.028021
0.100885
0.237848
0.326471
0.350641
0.350641
0.358698
0.398981
0.358698
0.310358
0.229792
0.157282
0.108942
0.108942
0.100885
0.076715
0.068659
0.028376
0.012262
0.012262
-0.011908
-0.028021
-0.028021
-0.028021
-0.028021
-0.028021
-0.044134
-0.044134
-0.036078
-0.003851
-0.003851
0.004206
-0.019964
0.004206
0.004206
-0.003851
-0.028021
-0.011908
-0.003851
-0.028021
0.004206
-0.011908
-0.019964
0.004206
-0.003851
0.012262
0.020319
-0.044134
0.004206
-0.011908
-0.019964
0.012262
-0.011908
-0.003851
0.004206
-0.028021
0.004206
-0.003851
-0.044134
0.004206
0.004206
-0.003851
-0.019964
0.012262
0.012262
-0.108587
-0.293890
-0.350287
-0.390570
-0.422796
-0.334173
-0.221380
-0.156927
-0.076361
-0.019964
-0.028021
-0.011908
0.012262
0.052545
0.044489
-0.003851
0.036432
0.004206
-0.003851
-0.003851
0.012262
-0.019964
-0.011908
0.028376
0.028376
-0.028021
0.020319
0.012262
0.004206
-0.019964
-0.003851
-0.019964
-0.060248
0.012262
-0.019964
-0.003851
-0.019964
-0.019964
-0.044134
-0.011908
-0.036078
-0.036078
-0.060248
-0.011908
-0.003851
0.004206
-0.060248
-0.028021
-0.011908
0.020319
-0.011908
-0.019964
0.004206
-0.011908
0.004206
-0.003851
-0.060248
-0.028021
-0.044134
-0.028021
-0.019964
-0.028021
-0.003851
-0.044134
0.100885
0.253961
0.294245
0.334528
0.350641
0.334528
0.366754
0.366754
0.302301
0.245905
0.213678
0.149225
0.116999
0.068659
0.044489
0.020319
0.036432
-0.003851
0.004206
0.004206
-0.003851
-0.028021
-0.068304
-0.060248
-0.052191
-0.036078
-0.052191
-0.052191
-0.028021
-0.028021
-0.028021
-0.011908
-0.028021
-0.019964
-0.036078
-0.003851
0.004206
-0.003851
-0.011908
-0.003851
-0.011908
0.020319
-0.019964
0.004206
-0.003851
0.004206
0.004206
0.028376
0.028376
0.012262
0.020319
-0.036078
-0.011908
0.004206
-0.003851
0.012262
0.004206
0.052545
0.020319
0.020319
0.012262
0.020319
0.044489
0.012262
-0.124701
-0.301947
-0.334173
-0.398626
-0.390570
-0.422796
-0.406683
-0.382513
-0.350287
-0.277777
-0.237494
-0.189154
-0.140814
-0.108587
-0.092474
-0.052191
-0.060248
-0.044134
-0.060248
-0.011908
-0.044134
-0.003851
-0.036078
-0.019964
-0.044134
-0.011908
0.004206
-0.044134
-0.019964
-0.028021
-0.028021
-0.019964
-0.011908
0.020319
0.173395
0.245905
0.253961
0.197565
0.213678
0.157282
0.149225
0.125055
0.092829
0.052545
0.036432
0.004206
0.028376
-0.044134
0.020319
-0.003851
-0.019964
-0.011908
-0.036078
-0.028021
-0.060248
-0.036078
-0.011908
-0.044134
-0.028021
-0.044134
-0.060248
-0.003851
0.020319
-0.011908
0.084772
0.262018
0.310358
0.326471
0.350641
0.334528
0.342585
0.350641
0.294245
0.229792
0.189508
0.141169
0.116999
0.068659
0.052545
0.052545
0.020319
0.020319
-0.019964
-0.028021
-0.044134
-0.044134
-0.019964
-0.044134
-0.019964
-0.028021
-0.052191
-0.028021
-0.011908
-0.003851
0.012262
-0.003851
-0.011908
-0.019964
-0.019964
-0.019964
0.028376
0.004206
-0.003851
0.012262
-0.011908
0.020319
0.028376
-0.011908
-0.003851
0.012262
-0.003851
0.012262
0.004206
0.012262
0.020319
0.020319
-0.019964
0.004206
0.028376
0.004206
0.004206
-0.003851
-0.003851
0.004206
0.012262
0.052545
0.004206
0.020319
-0.100531
-0.269720
-0.334173
-0.374456
-0.398626
-0.374456
-0.390570
-0.374456
-0.293890
-0.245550
-0.181097
-0.164984
-0.100531
-0.076361
-0.124701
-0.068304
-0.052191
0.004206
-0.003851
-0.011908
0.020319
-0.003851
0.012262
0.004206
0.012262
-0.003851
0.020319
0.004206
-0.003851
-0.003851
0.060602
0.020319
0.004206
-0.036078
-0.036078
-0.019964
0.012262
-0.019964
-0.036078
-0.044134
-0.019964
-0.044134
-0.028021
0.036432
-0.044134
-0.019964
-0.019964
-0.052191
-0.036078
-0.052191
-0.028021
-0.036078
-0.036078
-0.044134
-0.060248
-0.052191
0.036432
0.116999
0.189508
0.181452
0.181452
0.149225
0.149225
0.116999
0.262018
0.374811
0.398981
0.382868
0.415094
0.374811
0.358698
0.358698
0.318415
0.221735
0.157282
0.173395
0.092829
0.092829
0.068659
0.044489
0.036432
-0.011908
-0.011908
-0.003851
-0.028021
0.020319
-0.052191
-0.068304
-0.052191
-0.044134
-0.044134
-0.003851
0.004206
-0.052191
0.004206
-0.011908
-0.028021
-0.052191
-0.003851
-0.019964
-0.028021
0.020319
0.012262
0.028376
-0.003851
0.012262
-0.003851
0.028376
-0.011908
0.004206
-0.011908
-0.036078
-0.011908
-0.019964
0.020319
0.012262
-0.011908
0.012262
0.004206
-0.003851
-0.028021
-0.028021
0.020319
0.004206
0.004206
0.020319
0.004206
-0.028021
-0.116644
-0.293890
-0.318060
-0.398626
-0.406683
-0.374456
-0.414740
-0.358343
-0.293890
-0.293890
-0.213324
-0.156927
-0.124701
-0.108587
-0.100531
-0.044134
-0.068304
-0.036078
-0.028021
-0.019964
-0.036078
0.012262
0.028376
-0.011908
0.012262
0.012262
-0.028021
-0.003851
-0.019964
0.012262
0.004206
0.036432
0.036432
-0.003851
0.028376
-0.003851
-0.019964
-0.011908
-0.028021
-0.011908
-0.003851
-0.011908
-0.011908
-0.044134
-0.044134
-0.028021
-0.011908
-0.011908
-0.011908
-0.019964
-0.044134
-0.028021
-0.044134
0.004206
-0.036078
0.036432
-0.019964
-0.011908
-0.044134
-0.028021
-0.028021
-0.060248
0.028376
-0.011908
0.133112
0.278131
0.334528
0.342585
0.342585
0.390924
0.366754
0.342585
0.302301
0.237848
0.173395
0.125055
0.108942
0.052545
0.052545
0.068659
0.004206
-0.003851
-0.044134
-0.068304
-0.076361
-0.068304
-0.019964
0.125055
0.189508
0.197565
0.189508
0.189508
0.133112
0.108942
0.108942
0.133112
0.125055
0.076715
0.036432
0.036432
0.076715
-0.003851
-0.011908
-0.011908
-0.036078
-0.036078
-0.011908
0.004206
0.004206
-0.011908
-0.003851
0.012262
-0.028021
-0.036078
-0.019964
-0.019964
-0.028021
-0.011908
-0.003851
-0.036078
0.020319
0.004206
-0.019964
-0.003851
-0.003851
0.020319
0.004206
0.004206
-0.132757
-0.301947
-0.350287
-0.382513
-0.398626
-0.390570
-0.414740
-0.398626
-0.318060
-0.269720
-0.229437
-0.164984
-0.116644
-0.108587
-0.100531
-0.044134
-0.060248
-0.068304
-0.019964
-0.011908
0.020319
-0.019964
0.004206
-0.011908
-0.019964
-0.011908
0.028376
0.004206
0.020319
0.052545
-0.044134
-0.003851
-0.011908
-0.028021
-0.019964
-0.028021
-0.003851
0.004206
-0.028021
-0.044134
-0.028021
-0.052191
-0.011908
-0.003851
0.004206
-0.019964
-0.028021
-0.044134
-0.011908
-0.068304
-0.011908
-0.028021
-0.028021
-0.019964
-0.044134
-0.068304
-0.011908
-0.019964
-0.036078
-0.019964
-0.028021
-0.019964
-0.011908
0.020319
0.125055
0.270075
0.310358
0.342585
0.366754
0.382868
0.342585
0.334528
0.278131
0.189508
0.173395
0.100885
0.084772
0.076715
0.052545
0.028376
0.044489
-0.011908
-0.003851
-0.044134
-0.019964
-0.044134
-0.036078
0.012262
-0.044134
-0.019964
-0.060248
-0.036078
-0.019964
-0.036078
-0.028021
-0.011908
-0.028021
-0.019964
-0.003851
-0.019964
-0.011908
-0.011908
-0.019964
-0.003851
-0.036078
-0.036078
-0.019964
-0.003851
-0.028021
-0.011908
-0.019964
-0.028021
0.125055
0.221735
0.278131
0.229792
0.270075
0.221735
0.189508
0.133112
0.092829
0.084772
0.020319
0.012262
0.020319
0.020319
-0.028021
0.028376
-0.124701
-0.285833
-0.318060
-0.382513
-0.398626
-0.398626
-0.398626
-0.366400
-0.334173
-0.269720
-0.181097
-0.181097
-0.140814
-0.124701
-0.076361
-0.108587
-0.019964
-0.036078
-0.011908
0.020319
-0.003851
0.004206
-0.019964
-0.003851
-0.019964
-0.011908
-0.036078
-0.019964
-0.011908
-0.019964
0.028376
-0.011908
0.012262
-0.003851
-0.011908
-0.019964
0.020319
-0.036078
-0.019964
-0.011908
-0.011908
-0.011908
-0.044134
-0.044134
-0.044134
-0.019964
-0.036078
-0.028021
0.020319
-0.028021
-0.003851
-0.060248
-0.028021
-0.052191
-0.019964
-0.044134
-0.019964
-0.036078
-0.028021
-0.011908
-0.028021
-0.060248
-0.028021
-0.019964
0.133112
0.262018
0.326471
0.382868
0.334528
0.358698
0.382868
0.358698
0.278131
0.205622
0.141169
0.165338
0.116999
0.068659
0.084772
0.044489
0.028376
0.020319
-0.011908
-0.028021
-0.028021
-0.044134
-0.052191
-0.044134
-0.044134
-0.019964
-0.019964
-0.036078
-0.044134
-0.060248
-0.019964
-0.052191
-0.036078
-0.003851
-0.003851
0.012262
-0.011908
-0.044134
-0.019964
-0.028021
-0.003851
0.012262
0.012262
0.020319
-0.003851
-0.003851
-0.003851
-0.011908
0.004206
0.020319
-0.011908
-0.028021
0.004206
-0.036078
0.020319
0.036432
0.012262
0.004206
0.020319
-0.003851
-0.011908
-0.019964
-0.019964
-0.068304
-0.148871
-0.301947
-0.350287
-0.350287
-0.398626
-0.414740
-0.414740
-0.422796
-0.382513
-0.261664
-0.221380
-0.205267
-0.052191
0.052545
0.165338
0.173395
0.181452
0.157282
0.165338
0.173395
0.149225
0.116999
0.092829
0.060602
0.084772
0.004206
0.012262
-0.003851
0.012262
0.012262
-0.011908
-0.011908
-0.003851
-0.019964
-0.019964
-0.028021
-0.003851
-0.011908
-0.003851
-0.028021
-0.036078
0.004206
-0.060248
-0.036078
-0.028021
-0.028021
0.004206
-0.052191
-0.003851
-0.019964
-0.036078
0.004206
-0.028021
-0.019964
-0.028021
-0.052191
-0.028021
-0.044134
-0.036078
-0.044134
-0.019964
-0.019964
-0.052191
-0.036078
0.100885
0.270075
0.334528
0.366754
0.382868
0.342585
0.382868
0.342585
0.302301
0.213678
0.149225
0.116999
0.100885
0.108942
0.076715
0.036432
0.028376
-0.003851
-0.003851
-0.011908
-0.044134
-0.036078
-0.028021
-0.060248
-0.044134
-0.003851
-0.044134
-0.036078
-0.019964
0.004206
-0.011908
-0.044134
-0.028021
-0.028021
-0.011908
-0.019964
-0.028021
-0.019964
-0.019964
-0.011908
-0.011908
-0.019964
-0.011908
-0.011908
0.012262
0.004206
0.012262
0.036432
-0.003851
0.020319
0.012262
0.012262
-0.011908
-0.003851
0.020319
-0.036078
0.004206
-0.011908
0.004206
0.012262
0.004206
0.004206
-0.011908
-0.019964
-0.148871
-0.301947
-0.342230
-0.334173
-0.366400
-0.382513
-0.398626
-0.374456
-0.326117
-0.245550
-0.197210
-0.156927
-0.148871
-0.060248
-0.100531
-0.036078
-0.036078
-0.052191
-0.019964
0.004206
-0.003851
0.012262
-0.003851
0.004206
0.004206
-0.011908
-0.003851
-0.011908
-0.044134
-0.019964
-0.044134
-0.036078
-0.011908
-0.044134
-0.036078
0.060602
0.189508
0.229792
0.213678
0.221735
0.189508
0.149225
0.076715
0.060602
0.020319
-0.003851
0.012262
-0.028021
0.020319
-0.044134
-0.052191
-0.044134
-0.044134
-0.036078
-0.028021
-0.028021
-0.028021
-0.052191
-0.028021
-0.044134
-0.052191
-0.028021
-0.036078
-0.044134
0.100885
0.245905
0.334528
0.326471
0.310358
0.358698
0.374811
0.358698
0.310358
0.197565
0.165338
0.133112
0.076715
0.076715
0.052545
0.044489
0.028376
0.020319
-0.011908
-0.036078
-0.036078
-0.044134
-0.052191
-0.019964
-0.044134
-0.028021
-0.028021
-0.003851
-0.044134
-0.036078
-0.028021
-0.044134
-0.044134
-0.044134
-0.044134
-0.028021
-0.011908
-0.019964
-0.019964
-0.003851
0.020319
-0.019964
-0.003851
0.012262
0.036432
-0.003851
0.004206
0.012262
0.004206
0.012262
0.028376
-0.003851
0.012262
-0.028021
-0.003851
-0.003851
-0.003851
-0.003851
-0.019964
0.036432
0.044489
-0.003851
-0.003851
-0.019964
-0.156927
-0.310003
-0.326117
-0.374456
-0.398626
-0.358343
-0.406683
-0.366400
-0.326117
-0.269720
-0.173040
-0.173040
-0.124701
-0.116644
-0.092474
-0.076361
-0.068304
-0.028021
-0.028021
-0.028021
0.004206
0.012262
-0.011908
0.020319
0.028376
0.004206
0.020319
-0.019964
-0.011908
-0.028021
-0.011908
-0.028021
0.004206
-0.011908
0.004206
0.004206
-0.019964
-0.036078
-0.028021
-0.011908
-0.011908
-0.036078
-0.028021
-0.036078
-0.036078
-0.011908
-0.028021
-0.028021
-0.019964
-0.068304
-0.003851
-0.019964
-0.028021
-0.003851
-0.036078
-0.028021
-0.044134
-0.052191
-0.068304
-0.052191
-0.011908
-0.068304
-0.052191
-0.019964
0.100885
0.358698
0.519831
0.600397
0.608454
0.576227
0.560114
0.519831
0.471491
0.334528
0.262018
0.181452
0.116999
0.092829
0.076715
0.076715
0.012262
0.012262
-0.011908
-0.036078
-0.019964
-0.019964
-0.028021
-0.060248
-0.052191
-0.036078
-0.019964
-0.044134
-0.036078
-0.076361
-0.036078
-0.036078
-0.044134
-0.052191
-0.019964
-0.019964
-0.003851
0.012262
0.004206
0.004206
-0.003851
0.004206
-0.003851
0.028376
0.004206
0.012262
-0.011908
0.004206
-0.003851
-0.019964
-0.011908
0.004206
-0.003851
0.012262
-0.011908
0.012262
0.004206
-0.003851
0.004206
-0.011908
-0.003851
-0.028021
0.020319
-0.028021
-0.108587
-0.310003
-0.382513
-0.358343
-0.382513
-0.430853
-0.390570
-0.326117
-0.318060
-0.277777
-0.213324
-0.164984
-0.156927
-0.116644
-0.076361
-0.092474
-0.076361
0.004206
0.004206
-0.011908
-0.011908
0.004206
0.004206
0.004206
-0.003851
-0.019964
0.012262
-0.003851
-0.011908
0.012262
0.012262
-0.019964
0.004206
-0.019964
-0.003851
-0.028021
0.004206
-0.019964
-0.028021
-0.011908
-0.011908
-0.003851
-0.019964
-0.011908
-0.011908
0.004206
-0.003851
-0.028021
-0.052191
-0.019964
-0.044134
-0.028021
-0.036078
-0.036078
-0.044134
-0.052191
-0.028021
-0.052191
-0.052191
-0.019964
-0.036078
-0.044134
-0.036078
-0.019964
0.116999
0.245905
0.334528
0.318415
0.318415
0.342585
0.382868
0.334528
0.326471
0.237848
0.165338
0.165338
0.092829
0.100885
0.044489
0.052545
0.012262
-0.028021
-0.036078
-0.028021
-0.044134
-0.028021
-0.068304
-0.044134
-0.052191
-0.044134
-0.011908
0.165338
0.197565
0.205622
0.205622
0.197565
0.157282
0.149225
0.108942
0.092829
0.004206
0.020319
0.044489
0.060602
0.044489
0.044489
0.004206
0.020319
0.004206
-0.003851
-0.011908
-0.003851
-0.003851
-0.019964
0.012262
-0.011908
-0.011908
-0.011908
-0.011908
0.012262
-0.011908
-0.028021
-0.011908
-0.028021
-0.011908
-0.019964
-0.003851
-0.003851
-0.148871
-0.285833
-0.318060
-0.366400
-0.358343
-0.382513
-0.382513
-0.358343
-0.310003
-0.269720
-0.221380
-0.156927
-0.140814
-0.132757
-0.084417
-0.060248
-0.060248
-0.028021
-0.011908
-0.003851
-0.003851
0.004206
-0.019964
-0.003851
0.004206
0.004206
0.004206
-0.003851
0.028376
0.020319
-0.028021
-0.003851
-0.028021
-0.011908
-0.019964
0.028376
0.004206
-0.011908
-0.011908
0.004206
-0.028021
-0.003851
-0.036078
-0.028021
-0.052191
-0.003851
-0.019964
-0.019964
-0.044134
-0.052191
-0.019964
-0.052191
-0.011908
-0.044134
-0.028021
-0.044134
-0.011908
-0.019964
-0.036078
-0.028021
-0.044134
-0.044134
-0.036078
-0.036078
0.125055
0.278131
0.334528
0.326471
0.318415
0.342585
0.366754
0.326471
0.294245
0.213678
0.141169
0.165338
0.060602
0.068659
0.060602
0.060602
0.012262
-0.028021
-0.044134
0.004206
-0.052191
-0.052191
-0.036078
-0.036078
-0.036078
-0.028021
-0.036078
-0.044134
-0.044134
-0.036078
0.020319
-0.019964
-0.028021
-0.052191
-0.003851
-0.052191
-0.011908
-0.028021
-0.019964
0.004206
0.028376
0.012262
0.004206
-0.011908
-0.003851
-0.011908
0.004206
-0.011908
-0.036078
-0.019964
-0.028021
-0.003851
-0.019964
-0.036078
0.044489
0.141169
0.245905
0.229792
0.229792
0.237848
0.197565
0.173395
0.173395
0.092829
-0.052191
-0.253607
-0.269720
-0.293890
-0.358343
-0.374456
-0.382513
-0.350287
-0.261664
-0.197210
-0.189154
-0.173040
-0.140814
-0.100531
-0.108587
-0.068304
-0.044134
-0.044134
-0.028021
-0.011908
0.012262
0.012262
-0.019964
-0.019964
-0.003851
-0.011908
0.012262
0.004206
-0.011908
0.004206
-0.011908
-0.036078
-0.011908
0.004206
-0.011908
-0.028021
-0.052191
-0.011908
-0.011908
-0.011908
0.012262
0.028376
0.004206
-0.019964
-0.044134
-0.052191
-0.011908
-0.044134
-0.003851
-0.036078
-0.028021
-0.028021
-0.084417
-0.052191
-0.028021
-0.060248
-0.019964
-0.028021
-0.028021
-0.036078
-0.028021
-0.036078
-0.036078
0.004206
0.092829
0.229792
0.310358
0.326471
0.342585
0.374811
0.358698
0.294245
0.286188
0.221735
0.173395
0.133112
0.092829
0.060602
0.044489
0.036432
-0.003851
0.004206
-0.044134
-0.036078
-0.036078
-0.036078
-0.019964
0.012262
-0.028021
-0.011908
-0.036078
-0.003851
-0.019964
-0.052191
-0.028021
-0.052191
-0.011908
0.004206
0.012262
0.004206
-0.036078
-0.028021
-0.003851
0.004206
-0.019964
-0.028021
0.012262
-0.003851
-0.011908
0.004206
0.020319
-0.003851
0.012262
0.012262
-0.003851
-0.003851
-0.019964
0.012262
-0.028021
-0.044134
-0.011908
0.004206
-0.003851
0.020319
-0.011908
0.028376
-0.011908
-0.044134
-0.148871
-0.342230
-0.358343
-0.406683
-0.382513
-0.382513
-0.414740
-0.382513
-0.350287
-0.269720
-0.221380
-0.189154
-0.124701
-0.108587
0.028376
0.125055
0.181452
0.157282
0.213678
0.173395
0.157282
0.133112
0.125055
0.084772
0.052545
0.028376
0.012262
-0.011908
0.012262
0.004206
0.004206
-0.036078
-0.028021
-0.028021
0.004206
-0.019964
