0.773338
0.644432
0.330223
0.169090
0.072411
0.048241
0.040184
-0.016212
0.016014
-0.016212
-0.000099
0.007958
-0.008156
-0.088722
-0.306251
-0.443214
-0.491554
-0.564064
-0.547951
-0.531837
-0.564064
-0.612404
-0.604347
-0.515724
-0.483498
-0.459328
-0.475441
-0.427101
-0.386818
-0.378761
-0.354591
-0.386818
-0.354591
-0.290138
-0.298195
-0.233742
-0.249855
-0.193458
-0.209572
-0.185402
-0.169289
-0.153175
-0.137062
-0.120949
-0.104835
-0.072609
-0.072609
-0.008156
-0.016212
-0.016212
-0.000099
0.024071
-0.024269
-0.000099
-0.016212
-0.008156
-0.008156
-0.000099
-0.024269
-0.056496
-0.008156
-0.040382
-0.048439
-0.032326
-0.048439
-0.024269
-0.024269
-0.024269
-0.040382
-0.040382
-0.064552
-0.032326
-0.040382
-0.040382
-0.080666
-0.056496
-0.056496
-0.040382
-0.056496
-0.040382
-0.072609
-0.056496
-0.016212
0.072411
0.354393
0.628319
0.668602
0.604149
0.555809
0.539696
0.579979
0.547752
0.475243
0.499413
0.491356
0.451073
0.451073
0.426903
0.314110
0.314110
0.241600
0.201317
0.177147
0.152977
0.144920
0.136864
0.128807
0.088524
0.064354
0.056297
-0.008156
0.007958
-0.040382
-0.024269
-0.016212
-0.024269
-0.000099
-0.016212
-0.024269
-0.016212
-0.040382
-0.032326
-0.016212
-0.000099
-0.000099
-0.016212
-0.024269
-0.016212
-0.032326
-0.016212
-0.016212
-0.032326
-0.000099
-0.024269
-0.072609
-0.024269
-0.040382
-0.048439
0.072411
0.201317
0.225487
0.225487
0.201317
0.201317
0.169090
0.185204
0.096581
-0.112892
-0.394874
-0.612404
-0.628517
-0.604347
-0.620460
-0.588234
-0.572121
-0.556007
-0.507667
-0.475441
-0.507667
-0.435158
-0.459328
-0.419044
-0.338478
-0.249855
-0.193458
-0.201515
-0.161232
-0.169289
-0.153175
-0.104835
-0.088722
-0.072609
-0.040382
-0.024269
-0.000099
-0.008156
0.007958
-0.024269
-0.008156
0.016014
0.007958
0.016014
0.007958
0.016014
-0.000099
0.016014
-0.048439
0.016014
0.007958
-0.024269
-0.000099
-0.008156
-0.048439
-0.040382
-0.016212
-0.024269
-0.032326
-0.024269
-0.016212
-0.040382
-0.008156
-0.048439
-0.048439
-0.040382
-0.072609
-0.064552
-0.064552
-0.016212
-0.056496
-0.024269
-0.048439
-0.040382
-0.008156
0.112694
0.346336
0.426903
0.451073
0.491356
0.483299
0.499413
0.451073
0.410790
0.402733
0.402733
0.378563
0.346336
0.281883
0.201317
0.177147
0.120751
0.096581
0.104637
0.096581
0.048241
0.007958
-0.000099
0.024071
-0.000099
-0.024269
-0.008156
-0.016212
-0.008156
-0.016212
-0.024269
-0.016212
-0.056496
-0.032326
-0.032326
-0.032326
-0.024269
-0.048439
-0.000099
-0.024269
0.024071
-0.048439
-0.016212
-0.048439
-0.000099
-0.008156
-0.016212
-0.008156
-0.008156
-0.000099
-0.016212
-0.032326
-0.008156
-0.024269
-0.000099
0.032127
-0.000099
0.032127
-0.008156
-0.008156
-0.008156
-0.000099
-0.008156
0.007958
0.032127
0.007958
-0.112892
-0.282082
-0.410988
-0.475441
-0.499611
-0.435158
-0.410988
-0.443214
-0.402931
-0.410988
-0.362648
-0.330421
-0.241798
-0.233742
-0.153175
-0.096779
0.080467
0.136864
0.161034
0.185204
0.177147
0.152977
0.112694
0.048241
0.064354
0.032127
0.048241
0.032127
0.007958
0.007958
0.007958
-0.008156
-0.008156
0.016014
0.007958
0.016014
-0.016212
-0.016212
-0.016212
-0.040382
-0.056496
-0.048439
-0.032326
-0.008156
-0.048439
-0.048439
-0.024269
-0.032326
-0.048439
-0.008156
-0.048439
-0.040382
-0.056496
-0.016212
-0.008156
-0.024269
-0.040382
-0.032326
-0.064552
-0.016212
-0.024269
-0.040382
-0.040382
-0.048439
0.016014
0.249657
0.354393
0.402733
0.467186
0.418846
0.402733
0.386620
0.394676
0.370506
0.314110
0.249657
0.209374
0.161034
0.104637
0.120751
0.064354
0.064354
0.048241
-0.000099
0.040184
-0.016212
-0.016212
-0.048439
-0.048439
-0.032326
-0.024269
-0.000099
-0.032326
-0.016212
-0.032326
-0.008156
-0.024269
0.016014
-0.024269
-0.024269
-0.040382
-0.008156
-0.024269
-0.024269
-0.008156
-0.056496
-0.016212
-0.016212
-0.016212
-0.016212
-0.008156
0.024071
0.032127
0.007958
0.007958
-0.008156
-0.008156
-0.000099
-0.016212
-0.008156
-0.016212
0.024071
-0.008156
0.016014
0.040184
0.016014
0.016014
0.016014
-0.032326
-0.217628
-0.338478
-0.427101
-0.467384
-0.427101
-0.443214
-0.419044
-0.410988
-0.386818
-0.314308
-0.233742
-0.217628
-0.185402
-0.153175
-0.129005
-0.104835
-0.096779
-0.056496
-0.032326
-0.032326
-0.016212
0.056297
-0.008156
-0.000099
0.007958
-0.024269
-0.016212
-0.024269
0.007958
0.024071
0.007958
-0.016212
-0.008156
0.007958
-0.016212
-0.056496
-0.016212
0.016014
0.136864
0.225487
0.201317
0.177147
0.152977
0.152977
0.104637
0.088524
0.064354
-0.000099
-0.032326
-0.032326
-0.024269
-0.040382
-0.048439
-0.056496
-0.040382
-0.048439
-0.064552
-0.048439
-0.072609
-0.040382
-0.064552
-0.040382
-0.016212
-0.016212
0.201317
0.306053
0.410790
0.410790
0.378563
0.402733
0.386620
0.394676
0.394676
0.297997
0.241600
0.201317
0.177147
0.144920
0.072411
0.088524
0.056297
0.016014
0.007958
-0.008156
-0.024269
-0.024269
-0.016212
-0.048439
-0.032326
-0.048439
-0.048439
-0.008156
-0.008156
-0.040382
-0.024269
-0.032326
-0.032326
-0.032326
0.032127
-0.024269
-0.032326
0.007958
-0.016212
-0.000099
0.024071
-0.000099
-0.000099
-0.008156
0.007958
-0.008156
-0.016212
-0.024269
-0.000099
0.032127
-0.008156
0.007958
0.024071
0.024071
0.040184
0.016014
-0.000099
0.016014
-0.016212
-0.000099
0.016014
-0.008156
-0.024269
-0.024269
-0.201515
-0.322365
-0.410988
-0.443214
-0.394874
-0.402931
-0.419044
-0.410988
-0.370705
-0.314308
-0.257912
-0.233742
-0.153175
-0.137062
-0.112892
-0.112892
-0.080666
-0.064552
-0.032326
-0.008156
0.024071
0.016014
-0.024269
-0.016212
0.024071
-0.016212
0.024071
-0.000099
-0.008156
-0.016212
-0.016212
-0.000099
0.007958
-0.000099
0.007958
-0.024269
-0.008156
0.007958
0.024071
0.024071
-0.008156
-0.000099
-0.024269
-0.040382
-0.040382
-0.008156
-0.008156
-0.024269
-0.032326
-0.024269
-0.048439
-0.056496
-0.040382
-0.040382
-0.072609
-0.072609
-0.048439
-0.056496
-0.008156
-0.072609
-0.040382
-0.032326
-0.040382
-0.040382
0.136864
0.273827
0.370506
0.451073
0.579979
0.620262
0.652489
0.620262
0.612206
0.459129
0.394676
0.306053
0.209374
0.144920
0.112694
0.088524
0.080467
0.040184
0.032127
0.024071
-0.040382
-0.064552
-0.024269
-0.040382
-0.040382
-0.024269
-0.008156
-0.032326
-0.008156
-0.040382
-0.000099
-0.000099
-0.000099
-0.024269
0.032127
-0.008156
0.007958
-0.000099
-0.016212
0.016014
0.016014
-0.008156
0.016014
-0.008156
0.007958
-0.024269
-0.008156
-0.024269
-0.000099
0.040184
0.007958
-0.024269
0.007958
0.032127
0.024071
-0.000099
-0.024269
-0.016212
-0.008156
-0.008156
0.016014
-0.000099
0.024071
-0.008156
-0.153175
-0.306251
-0.386818
-0.427101
-0.370705
-0.410988
-0.402931
-0.386818
-0.370705
-0.290138
-0.257912
-0.193458
-0.153175
-0.129005
-0.064552
-0.120949
-0.056496
-0.064552
-0.024269
-0.040382
-0.000099
-0.008156
0.016014
-0.008156
0.016014
0.007958
-0.024269
-0.008156
-0.000099
-0.000099
-0.032326
-0.000099
0.016014
-0.016212
0.032127
0.016014
-0.016212
-0.024269
-0.000099
-0.000099
-0.016212
-0.032326
-0.008156
-0.040382
-0.032326
-0.040382
-0.064552
-0.016212
-0.032326
-0.064552
-0.016212
-0.000099
-0.008156
-0.040382
-0.048439
-0.040382
-0.040382
-0.056496
-0.032326
-0.040382
-0.000099
-0.008156
-0.016212
0.016014
0.169090
0.281883
0.378563
0.402733
0.362450
0.370506
0.386620
0.370506
0.346336
0.273827
0.209374
0.169090
0.144920
0.128807
0.104637
0.080467
0.080467
0.016014
0.032127
0.007958
0.016014
-0.008156
-0.032326
-0.040382
-0.024269
-0.032326
-0.040382
-0.040382
0.016014
0.136864
0.185204
0.193260
0.209374
0.177147
0.120751
0.112694
0.136864
0.056297
0.048241
0.024071
0.024071
0.024071
0.016014
-0.000099
0.007958
-0.000099
-0.000099
0.007958
-0.008156
0.040184
-0.008156
-0.016212
-0.016212
-0.032326
-0.000099
0.032127
-0.016212
0.016014
0.024071
-0.008156
0.040184
-0.000099
0.007958
-0.064552
-0.161232
-0.346535
-0.427101
-0.435158
-0.410988
-0.410988
-0.427101
-0.419044
-0.362648
-0.306251
-0.241798
-0.209572
-0.145119
-0.064552
-0.080666
-0.088722
-0.104835
-0.080666
-0.024269
-0.008156
0.032127
0.016014
-0.000099
-0.000099
0.040184
0.007958
0.032127
-0.000099
-0.008156
-0.000099
-0.000099
-0.000099
-0.016212
-0.024269
0.007958
-0.008156
-0.000099
-0.016212
-0.008156
-0.048439
-0.000099
-0.008156
-0.008156
-0.000099
-0.040382
-0.000099
-0.008156
0.016014
-0.032326
-0.032326
-0.016212
-0.024269
-0.024269
-0.048439
-0.016212
0.007958
-0.008156
-0.040382
-0.040382
-0.016212
-0.016212
-0.048439
-0.000099
0.007958
0.161034
0.322167
0.394676
0.451073
0.394676
0.378563
0.394676
0.370506
0.370506
0.257713
0.209374
0.169090
0.104637
0.112694
0.088524
0.072411
0.064354
0.064354
0.040184
-0.024269
-0.008156
-0.032326
-0.000099
-0.032326
-0.032326
-0.016212
-0.000099
-0.000099
-0.008156
-0.040382
-0.024269
-0.032326
-0.016212
-0.016212
-0.008156
-0.032326
-0.016212
-0.024269
-0.024269
-0.008156
-0.008156
0.016014
0.007958
0.040184
-0.000099
-0.016212
-0.000099
-0.040382
-0.000099
-0.016212
-0.024269
-0.016212
-0.000099
-0.016212
-0.008156
-0.024269
0.024071
0.169090
0.249657
0.257713
0.241600
0.257713
0.201317
0.161034
-0.064552
-0.225685
-0.346535
-0.386818
-0.354591
-0.394874
-0.410988
-0.402931
-0.346535
-0.265968
-0.241798
-0.153175
-0.185402
-0.129005
-0.064552
-0.096779
-0.080666
-0.048439
-0.016212
0.032127
0.007958
0.048241
0.024071
0.024071
-0.000099
0.016014
0.024071
0.007958
0.032127
0.007958
-0.008156
-0.008156
0.024071
-0.000099
-0.000099
-0.016212
-0.016212
-0.016212
-0.024269
0.016014
-0.032326
-0.016212
-0.016212
0.016014
-0.024269
-0.008156
-0.024269
-0.000099
-0.016212
-0.032326
-0.056496
-0.008156
-0.032326
-0.008156
-0.040382
-0.024269
-0.016212
-0.048439
0.007958
-0.000099
-0.024269
-0.016212
-0.032326
0.024071
0.193260
0.346336
0.394676
0.410790
0.378563
0.410790
0.410790
0.378563
0.386620
0.297997
0.217430
0.217430
0.136864
0.128807
0.088524
0.056297
0.064354
0.072411
0.040184
0.007958
0.016014
-0.008156
-0.040382
-0.024269
-0.016212
-0.072609
-0.024269
-0.032326
-0.032326
-0.008156
-0.008156
-0.000099
-0.000099
-0.024269
-0.040382
-0.040382
-0.040382
0.032127
-0.008156
-0.008156
-0.008156
-0.024269
-0.016212
-0.000099
0.016014
-0.000099
0.007958
-0.008156
-0.024269
0.048241
0.032127
-0.000099
-0.000099
-0.008156
0.032127
-0.000099
0.016014
0.007958
0.016014
0.016014
-0.024269
-0.000099
-0.008156
-0.024269
-0.217628
-0.370705
-0.394874
-0.427101
-0.410988
-0.427101
-0.386818
-0.402931
-0.354591
-0.298195
-0.209572
-0.217628
-0.177345
-0.137062
-0.129005
-0.072609
0.032127
0.169090
0.177147
0.217430
0.161034
0.185204
0.136864
0.104637
0.104637
0.024071
0.048241
-0.000099
-0.008156
-0.000099
-0.000099
-0.000099
-0.000099
0.024071
0.007958
-0.008156
-0.016212
-0.000099
-0.024269
-0.000099
-0.032326
-0.032326
-0.016212
-0.024269
-0.000099
-0.024269
-0.064552
-0.024269
-0.008156
-0.032326
-0.056496
0.007958
-0.048439
-0.032326
-0.000099
-0.032326
-0.040382
-0.032326
-0.032326
-0.032326
-0.008156
-0.024269
-0.016212
0.007958
0.217430
0.338280
0.386620
0.418846
0.410790
0.378563
0.346336
0.346336
0.338280
0.233543
0.201317
0.193260
0.161034
0.112694
0.096581
0.048241
0.056297
0.040184
0.048241
-0.008156
-0.016212
-0.056496
-0.024269
-0.016212
-0.032326
-0.024269
-0.000099
-0.032326
-0.040382
-0.016212
-0.056496
-0.040382
-0.040382
-0.064552
-0.024269
-0.040382
-0.032326
-0.008156
-0.024269
0.007958
-0.016212
0.007958
0.032127
0.016014
-0.000099
-0.016212
-0.008156
-0.016212
-0.000099
0.016014
-0.008156
-0.000099
-0.016212
0.016014
0.032127
0.016014
-0.008156
0.007958
0.016014
-0.000099
-0.000099
-0.000099
-0.008156
-0.056496
-0.217628
-0.330421
-0.419044
-0.419044
-0.427101
-0.419044
-0.394874
-0.386818
-0.322365
-0.257912
-0.217628
-0.201515
-0.161232
-0.120949
-0.104835
-0.088722
-0.064552
-0.056496
-0.048439
-0.008156
-0.024269
0.032127
0.040184
0.016014
0.024071
0.024071
-0.000099
0.016014
-0.000099
-0.016212
-0.008156
0.007958
-0.024269
-0.024269
-0.000099
-0.016212
-0.024269
0.016014
-0.008156
-0.032326
-0.048439
-0.040382
-0.016212
-0.024269
-0.024269
0.016014
0.136864
0.225487
0.209374
0.185204
0.185204
0.152977
0.136864
0.104637
0.048241
0.040184
0.007958
-0.000099
-0.000099
-0.024269
0.007958
-0.032326
-0.016212
0.056297
0.193260
0.338280
0.410790
0.402733
0.378563
0.394676
0.386620
0.410790
0.314110
0.257713
0.193260
0.161034
0.120751
0.120751
0.048241
0.024071
0.056297
0.016014
0.016014
-0.016212
-0.032326
-0.040382
-0.008156
-0.016212
-0.024269
-0.016212
-0.024269
-0.024269
-0.032326
-0.008156
-0.016212
-0.056496
-0.032326
-0.040382
-0.024269
-0.008156
-0.016212
-0.024269
0.024071
-0.008156
-0.016212
-0.008156
0.032127
-0.008156
0.024071
-0.000099
0.024071
0.007958
0.007958
0.016014
-0.008156
0.007958
0.024071
0.007958
0.024071
-0.016212
0.007958
0.016014
0.032127
-0.008156
-0.008156
0.007958
0.024071
-0.056496
-0.265968
-0.354591
-0.410988
-0.402931
-0.394874
-0.386818
-0.402931
-0.362648
-0.330421
-0.290138
-0.177345
-0.193458
-0.153175
-0.112892
-0.096779
-0.080666
-0.056496
-0.080666
-0.000099
-0.016212
0.007958
-0.000099
0.016014
-0.016212
-0.000099
0.016014
0.016014
-0.016212
0.016014
0.016014
0.032127
0.007958
0.016014
0.016014
0.007958
-0.024269
0.024071
-0.016212
-0.016212
-0.024269
0.007958
-0.008156
-0.032326
0.007958
-0.048439
-0.024269
-0.024269
-0.032326
-0.032326
-0.040382
-0.008156
-0.048439
-0.032326
-0.032326
-0.024269
-0.024269
-0.008156
-0.048439
-0.032326
-0.048439
-0.024269
-0.032326
-0.040382
0.024071
0.249657
0.346336
0.386620
0.386620
0.338280
0.370506
0.418846
0.523583
0.555809
0.467186
0.426903
0.338280
0.273827
0.225487
0.209374
0.152977
0.112694
0.032127
0.007958
0.007958
-0.000099
-0.032326
-0.040382
-0.048439
-0.016212
-0.032326
-0.032326
0.007958
-0.032326
0.007958
-0.032326
-0.032326
-0.024269
-0.032326
-0.016212
-0.024269
-0.032326
-0.000099
-0.008156
-0.008156
-0.032326
-0.000099
0.032127
0.016014
0.032127
-0.008156
-0.000099
-0.008156
-0.000099
-0.008156
-0.016212
0.007958
-0.008156
-0.008156
0.040184
0.024071
-0.016212
-0.016212
-0.008156
-0.000099
-0.016212
0.007958
0.024071
-0.040382
-0.225685
-0.394874
-0.427101
-0.410988
-0.419044
-0.394874
-0.370705
-0.370705
-0.338478
-0.290138
-0.217628
-0.153175
-0.104835
-0.096779
-0.096779
-0.096779
-0.096779
-0.024269
-0.024269
-0.016212
-0.008156
-0.008156
-0.008156
-0.008156
0.007958
0.032127
-0.000099
0.032127
0.024071
0.024071
0.016014
0.024071
0.007958
-0.032326
-0.000099
-0.016212
-0.024269
-0.024269
-0.016212
-0.032326
-0.016212
-0.032326
-0.016212
-0.016212
-0.016212
-0.032326
-0.056496
-0.008156
-0.040382
-0.032326
-0.048439
0.007958
-0.040382
-0.016212
-0.040382
-0.040382
-0.024269
-0.008156
-0.032326
-0.008156
-0.024269
-0.016212
-0.032326
0.048241
0.233543
0.346336
0.370506
0.434959
0.354393
0.354393
0.378563
0.370506
0.281883
0.257713
0.209374
0.161034
0.120751
0.104637
0.064354
0.072411
0.048241
0.007958
-0.040382
-0.000099
-0.016212
-0.032326
-0.048439
-0.024269
-0.024269
-0.040382
-0.016212
-0.032326
-0.056496
-0.016212
-0.016212
-0.064552
-0.024269
-0.016212
-0.000099
0.120751
0.217430
0.249657
0.265770
0.201317
0.185204
0.177147
0.112694
0.144920
0.088524
0.072411
0.048241
0.032127
0.040184
-0.000099
0.024071
0.016014
-0.000099
-0.008156
0.007958
0.007958
-0.008156
0.032127
0.007958
0.048241
-0.024269
0.024071
-0.000099
-0.080666
-0.241798
-0.386818
-0.419044
-0.419044
-0.378761
-0.362648
-0.419044
-0.394874
-0.354591
-0.290138
-0.217628
-0.193458
-0.137062
-0.137062
-0.104835
-0.072609
-0.040382
-0.016212
-0.024269
-0.000099
-0.008156
-0.000099
0.007958
0.007958
0.016014
0.016014
0.040184
0.016014
-0.008156
-0.016212
-0.000099
0.007958
-0.008156
0.024071
-0.000099
-0.016212
-0.008156
-0.032326
-0.032326
-0.008156
-0.024269
0.007958
-0.032326
-0.032326
-0.008156
-0.000099
-0.016212
-0.008156
-0.040382
-0.032326
-0.048439
-0.024269
-0.024269
-0.008156
-0.024269
-0.008156
-0.032326
-0.000099
-0.016212
-0.048439
-0.016212
-0.016212
-0.056496
0.048241
0.273827
0.354393
0.410790
0.402733
0.386620
0.386620
0.378563
0.354393
0.322167
0.249657
0.225487
0.161034
0.120751
0.128807
0.088524
0.056297
0.064354
0.032127
0.024071
-0.032326
-0.048439
0.016014
-0.024269
-0.000099
-0.024269
-0.048439
-0.056496
-0.040382
-0.032326
-0.024269
-0.016212
-0.024269
-0.024269
0.016014
-0.008156
-0.024269
-0.008156
-0.016212
-0.032326
-0.000099
0.007958
-0.008156
-0.000099
-0.008156
-0.024269
-0.008156
0.016014
-0.008156
-0.008156
-0.016212
0.016014
-0.032326
-0.000099
-0.008156
-0.024269
-0.032326
-0.000099
-0.016212
0.136864
0.225487
0.241600
0.257713
0.201317
0.072411
-0.129005
-0.257912
-0.354591
-0.354591
-0.346535
-0.370705
-0.354591
-0.378761
-0.298195
-0.225685
-0.225685
-0.209572
-0.153175
-0.129005
-0.120949
-0.088722
-0.056496
-0.040382
-0.008156
-0.016212
-0.024269
-0.008156
-0.040382
-0.008156
0.032127
0.007958
0.007958
-0.016212
-0.040382
-0.016212
-0.008156
0.016014
-0.008156
-0.032326
0.007958
0.007958
-0.016212
-0.024269
-0.000099
-0.008156
-0.056496
-0.024269
-0.008156
-0.024269
-0.032326
-0.032326
-0.048439
-0.016212
-0.024269
-0.000099
-0.040382
-0.008156
-0.064552
-0.056496
-0.080666
-0.032326
-0.056496
-0.040382
-0.048439
-0.016212
-0.032326
-0.048439
-0.024269
0.048241
0.265770
0.370506
0.402733
0.410790
0.338280
0.386620
0.378563
0.338280
0.297997
0.233543
0.193260
0.144920
0.112694
0.112694
0.088524
0.064354
0.040184
-0.008156
-0.016212
-0.008156
-0.008156
-0.008156
-0.024269
-0.032326
-0.008156
-0.032326
-0.032326
-0.008156
-0.024269
0.007958
-0.016212
-0.016212
0.007958
-0.000099
-0.008156
-0.008156
-0.024269
0.007958
-0.040382
-0.008156
-0.016212
-0.032326
0.007958
0.007958
0.032127
0.007958
-0.000099
0.040184
0.024071
-0.008156
0.016014
0.007958
-0.008156
0.024071
0.016014
-0.016212
-0.008156
-0.008156
0.016014
0.048241
0.007958
0.024071
-0.032326
-0.112892
-0.306251
-0.427101
-0.451271
-0.419044
-0.427101
-0.419044
-0.378761
-0.354591
-0.338478
-0.282082
-0.209572
-0.145119
-0.129005
-0.104835
-0.064552
-0.064552
-0.104835
-0.048439
-0.016212
-0.024269
-0.016212
-0.016212
-0.024269
0.016014
0.177147
0.249657
0.257713
0.241600
0.225487
0.193260
0.185204
0.152977
0.120751
0.072411
0.024071
-0.000099
0.048241
0.016014
0.007958
-0.008156
-0.000099
-0.024269
-0.008156
-0.040382
-0.008156
-0.040382
-0.040382
-0.008156
-0.024269
-0.016212
-0.008156
-0.040382
-0.048439
-0.048439
-0.064552
-0.040382
-0.040382
-0.000099
-0.048439
-0.016212
-0.016212
-0.032326
-0.008156
0.096581
0.257713
0.370506
0.394676
0.386620
0.402733
0.346336
0.394676
0.354393
0.297997
0.257713
0.217430
0.152977
0.128807
0.056297
0.088524
0.040184
0.048241
0.024071
0.007958
-0.024269
-0.016212
-0.000099
-0.016212
-0.032326
-0.056496
-0.016212
-0.016212
-0.048439
-0.024269
-0.016212
-0.016212
-0.016212
-0.016212
-0.008156
0.016014
0.024071
-0.000099
-0.040382
-0.016212
-0.024269
-0.016212
0.016014
-0.008156
-0.008156
0.007958
-0.024269
-0.032326
-0.008156
-0.016212
0.016014
0.024071
-0.000099
0.024071
-0.008156
0.024071
-0.024269
-0.032326
0.016014
-0.000099
-0.008156
-0.000099
0.024071
0.016014
-0.153175
-0.290138
-0.402931
-0.435158
-0.410988
-0.410988
-0.370705
-0.386818
-0.362648
-0.314308
-0.233742
-0.185402
-0.145119
-0.129005
-0.120949
-0.104835
-0.088722
-0.056496
-0.024269
-0.024269
-0.000099
0.032127
-0.016212
0.024071
0.024071
0.007958
-0.000099
-0.000099
-0.008156
-0.000099
0.016014
-0.000099
0.040184
0.024071
-0.008156
-0.008156
-0.000099
-0.008156
-0.008156
-0.008156
-0.016212
-0.040382
-0.024269
-0.024269
-0.056496
-0.056496
-0.040382
-0.048439
-0.064552
-0.032326
0.080467
0.193260
0.177147
0.233543
0.201317
0.161034
0.128807
0.056297
0.088524
0.048241
0.032127
-0.000099
0.007958
0.007958
0.128807
0.297997
0.418846
0.394676
0.370506
0.370506
0.386620
0.378563
0.362450
0.297997
0.201317
0.193260
0.120751
0.080467
0.088524
0.080467
0.064354
0.048241
0.056297
-0.032326
-0.000099
-0.040382
-0.032326
-0.032326
-0.008156
-0.016212
-0.040382
-0.008156
-0.048439
-0.024269
-0.024269
-0.000099
-0.048439
-0.024269
-0.032326
-0.000099
-0.008156
-0.000099
-0.016212
-0.016212
-0.032326
0.016014
0.016014
0.024071
-0.024269
-0.008156
0.016014
0.016014
0.007958
0.024071
-0.016212
0.024071
0.024071
0.016014
-0.024269
-0.008156
-0.008156
0.016014
0.007958
0.007958
0.064354
0.007958
-0.000099
0.007958
-0.137062
-0.330421
-0.410988
-0.410988
-0.378761
-0.386818
-0.394874
-0.419044
-0.402931
-0.282082
-0.233742
-0.201515
-0.161232
-0.153175
-0.096779
-0.129005
-0.056496
-0.088722
-0.048439
-0.008156
0.007958
-0.000099
-0.008156
-0.008156
-0.008156
-0.008156
-0.000099
-0.000099
0.007958
-0.032326
-0.016212
-0.016212
0.007958
-0.000099
-0.016212
-0.016212
0.024071
-0.016212
-0.008156
-0.024269
-0.032326
-0.032326
-0.024269
-0.064552
-0.024269
-0.032326
-0.016212
-0.072609
-0.040382
-0.032326
-0.040382
-0.000099
-0.024269
-0.048439
-0.040382
-0.040382
-0.024269
-0.032326
-0.024269
-0.032326
-0.024269
-0.016212
-0.016212
-0.040382
0.136864
0.314110
0.378563
0.386620
0.386620
0.362450
0.346336
0.338280
0.322167
0.314110
0.225487
0.161034
0.128807
0.072411
0.177147
0.297997
0.314110
0.297997
0.217430
0.217430
0.177147
0.144920
0.112694
0.072411
0.016014
-0.008156
-0.000099
-0.008156
-0.032326
-0.024269
-0.016212
0.024071
0.040184
0.016014
0.016014
-0.000099
-0.016212
-0.016212
-0.024269
-0.008156
-0.008156
0.007958
0.016014
-0.016212
-0.000099
-0.024269
-0.008156
0.007958
0.007958
-0.008156
0.016014
-0.008156
-0.008156
-0.000099
-0.024269
-0.000099
-0.032326
0.016014
-0.032326
-0.008156
0.007958
0.007958
0.007958
-0.008156
-0.169289
-0.322365
-0.419044
-0.427101
-0.378761
-0.394874
-0.427101
-0.394874
-0.386818
-0.298195
-0.217628
-0.185402
-0.161232
-0.120949
-0.080666
-0.056496
-0.096779
-0.024269
-0.008156
-0.032326
0.007958
-0.040382
0.024071
-0.008156
-0.024269
0.024071
-0.000099
0.016014
-0.000099
0.024071
0.040184
0.056297
0.007958
-0.024269
-0.008156
-0.016212
-0.032326
-0.000099
-0.000099
-0.008156
-0.024269
0.016014
0.007958
-0.032326
0.007958
-0.040382
-0.008156
-0.032326
-0.000099
-0.008156
-0.016212
-0.032326
-0.048439
-0.008156
-0.016212
-0.024269
-0.040382
-0.016212
-0.024269
-0.008156
-0.016212
-0.008156
-0.008156
0.056297
0.144920
0.322167
0.394676
0.394676
0.378563
0.362450
0.418846
0.354393
0.346336
0.306053
0.249657
0.169090
0.120751
0.080467
0.088524
0.080467
0.080467
0.080467
-0.016212
-0.032326
0.016014
-0.040382
-0.024269
-0.008156
-0.032326
-0.008156
-0.016212
-0.016212
-0.008156
-0.008156
-0.016212
-0.024269
-0.040382
-0.056496
-0.000099
-0.000099
0.016014
0.096581
0.193260
0.225487
0.233543
0.209374
0.193260
0.193260
0.169090
0.120751
0.064354
0.040184
0.016014
0.016014
-0.000099
0.024071
0.007958
0.016014
0.007958
-0.008156
0.016014
0.016014
-0.000099
0.016014
-0.008156
-0.000099
-0.000099
-0.024269
-0.161232
-0.338478
-0.402931
-0.402931
-0.346535
-0.410988
-0.394874
-0.370705
-0.394874
-0.330421
-0.257912
-0.193458
-0.153175
-0.145119
-0.129005
-0.072609
-0.104835
-0.080666
-0.016212
-0.008156
0.007958
0.016014
-0.016212
-0.008156
0.032127
0.040184
0.024071
0.040184
0.007958
0.016014
0.016014
-0.008156
-0.000099
-0.000099
0.032127
0.024071
-0.008156
-0.000099
-0.000099
0.007958
0.016014
-0.032326
0.040184
-0.000099
-0.056496
-0.000099
-0.000099
-0.032326
-0.040382
-0.008156
-0.016212
-0.000099
-0.016212
0.007958
0.007958
-0.008156
-0.016212
-0.016212
-0.000099
-0.024269
-0.016212
-0.056496
-0.016212
0.007958
0.169090
0.289940
0.410790
0.402733
0.362450
0.394676
0.434959
0.370506
0.338280
0.257713
0.225487
0.177147
0.120751
0.128807
0.120751
0.048241
0.032127
0.040184
0.016014
-0.016212
-0.008156
0.016014
-0.000099
-0.016212
-0.016212
-0.056496
-0.048439
-0.000099
-0.024269
-0.024269
-0.024269
-0.032326
0.016014
-0.032326
-0.024269
0.024071
-0.032326
-0.024269
-0.008156
0.007958
-0.000099
-0.000099
-0.040382
-0.032326
-0.024269
-0.016212
-0.040382
0.007958
0.016014
-0.024269
-0.008156
0.016014
0.024071
0.016014
0.032127
-0.000099
-0.008156
0.016014
-0.032326
-0.008156
0.016014
-0.024269
-0.000099
-0.064552
-0.201515
-0.370705
-0.402931
-0.306251
-0.161232
-0.145119
-0.201515
-0.201515
-0.193458
-0.120949
-0.137062
-0.112892
-0.080666
-0.088722
-0.112892
-0.072609
-0.080666
-0.064552
-0.040382
0.007958
-0.008156
0.032127
0.016014
0.007958
0.007958
0.040184
-0.000099
-0.032326
-0.016212
0.024071
-0.024269
0.032127
-0.000099
-0.008156
0.032127
0.007958
-0.008156
-0.008156
-0.032326
-0.000099
-0.024269
-0.016212
0.016014
-0.024269
-0.016212
-0.016212
-0.008156
-0.032326
-0.000099
-0.024269
-0.008156
-0.024269
-0.016212
-0.024269
-0.008156
-0.024269
-0.032326
-0.040382
-0.032326
-0.056496
-0.040382
-0.048439
-0.000099
0.024071
0.193260
0.338280
0.378563
0.402733
0.378563
0.354393
0.354393
0.346336
0.346336
0.281883
0.209374
0.177147
0.177147
0.088524
0.080467
0.096581
0.064354
0.080467
0.024071
0.016014
0.007958
-0.000099
-0.008156
-0.032326
-0.000099
-0.032326
-0.024269
-0.040382
-0.000099
-0.016212
-0.032326
-0.056496
-0.016212
-0.000099
-0.032326
-0.008156
-0.000099
-0.008156
-0.024269
0.016014
0.016014
0.007958
-0.000099
0.007958
0.007958
-0.024269
0.032127
0.040184
0.056297
-0.000099
-0.000099
0.007958
-0.024269
0.016014
0.032127
0.007958
-0.000099
0.007958
0.016014
-0.032326
-0.008156
-0.016212
-0.008156
-0.016212
-0.241798
-0.322365
-0.443214
-0.427101
-0.386818
-0.419044
-0.419044
-0.370705
-0.362648
-0.265968
-0.217628
-0.169289
-0.112892
-0.137062
-0.096779
-0.104835
-0.072609
-0.064552
-0.032326
-0.008156
-0.008156
-0.008156
-0.000099
-0.008156
0.024071
0.007958
-0.024269
-0.000099
0.080467
0.201317
0.265770
0.209374
0.217430
0.193260
0.177147
0.120751
0.056297
0.048241
0.016014
0.007958
-0.000099
0.007958
-0.000099
0.016014
-0.000099
-0.000099
-0.008156
-0.008156
-0.024269
-0.032326
-0.048439
-0.032326
-0.000099
-0.040382
-0.056496
-0.048439
-0.040382
-0.056496
-0.008156
-0.008156
-0.040382
-0.008156
-0.024269
0.040184
0.193260
0.330223
0.426903
0.418846
0.394676
0.394676
0.378563
0.362450
0.314110
0.265770
0.201317
0.177147
0.161034
0.112694
0.104637
0.056297
0.064354
0.032127
-0.024269
-0.000099
-0.040382
-0.032326
-0.040382
-0.016212
-0.008156
-0.024269
-0.008156
-0.032326
-0.024269
-0.000099
-0.024269
-0.040382
0.032127
-0.016212
0.007958
-0.008156
-0.016212
0.016014
-0.008156
-0.000099
-0.000099
0.024071
0.024071
-0.000099
0.007958
0.007958
0.032127
-0.008156
0.024071
0.016014
-0.000099
0.007958
0.048241
0.024071
-0.016212
-0.008156
0.016014
-0.016212
0.024071
0.016014
0.007958
-0.000099
-0.000099
-0.040382
-0.233742
-0.314308
-0.410988
-0.410988
-0.386818
-0.378761
-0.410988
-0.402931
-0.354591
-0.314308
-0.233742
-0.145119
-0.137062
-0.129005
-0.096779
-0.080666
-0.056496
-0.016212
-0.016212
0.007958
-0.024269
0.007958
0.007958
0.024071
0.007958
-0.024269
0.016014
-0.024269
-0.024269
-0.000099
0.007958
-0.008156
0.016014
-0.000099
-0.016212
-0.008156
-0.000099
-0.024269
-0.000099
0.007958
-0.000099
-0.000099
-0.032326
-0.016212
-0.032326
-0.016212
-0.000099
-0.016212
-0.040382
-0.024269
-0.032326
-0.024269
-0.056496
-0.032326
-0.016212
-0.032326
0.016014
0.193260
0.209374
0.201317
0.193260
0.169090
0.136864
0.144920
0.322167
0.378563
0.451073
0.426903
0.386620
0.378563
0.418846
0.418846
0.354393
0.249657
0.201317
0.161034
0.177147
0.104637
0.048241
0.056297
0.040184
0.048241
-0.000099
-0.024269
-0.016212
0.024071
-0.032326
-0.032326
-0.032326
-0.000099
-0.032326
0.007958
-0.032326
-0.000099
-0.024269
-0.008156
-0.032326
-0.000099
0.040184
-0.000099
-0.008156
0.007958
0.007958
-0.008156
0.007958
0.040184
0.007958
0.007958
0.007958
-0.016212
-0.016212
0.007958
-0.000099
0.007958
0.007958
0.007958
0.007958
-0.000099
0.024071
-0.000099
-0.000099
-0.000099
0.016014
-0.008156
-0.016212
-0.008156
-0.000099
-0.064552
-0.225685
-0.370705
-0.427101
-0.435158
-0.378761
-0.410988
-0.443214
-0.378761
-0.354591
-0.257912
-0.209572
-0.177345
-0.112892
-0.080666
-0.104835
-0.064552
-0.072609
-0.080666
-0.056496
-0.024269
0.007958
-0.024269
0.007958
0.040184
0.016014
-0.000099
-0.000099
-0.008156
0.016014
0.007958
-0.040382
-0.016212
0.016014
-0.000099
-0.008156
-0.000099
-0.016212
0.007958
-0.016212
0.016014
0.007958
-0.040382
-0.016212
-0.008156
-0.024269
-0.000099
-0.032326
-0.000099
-0.016212
0.016014
-0.016212
-0.040382
-0.000099
-0.008156
-0.024269
-0.000099
0.016014
-0.016212
-0.008156
-0.032326
-0.000099
-0.016212
-0.032326
0.040184
0.233543
0.362450
0.426903
0.394676
0.370506
0.386620
0.338280
0.370506
0.314110
0.241600
0.193260
0.112694
0.104637
0.088524
0.080467
0.144920
0.257713
0.241600
0.217430
0.185204
0.152977
0.169090
0.088524
0.064354
0.048241
-0.008156
-0.024269
0.007958
0.024071
-0.024269
-0.008156
-0.048439
0.007958
-0.000099
-0.024269
-0.008156
-0.008156
-0.024269
-0.040382
0.007958
-0.008156
