0.845930
0.652571
0.330305
0.145003
0.096663
0.032210
0.024153
-0.024187
0.016096
-0.008074
-0.008074
-0.000017
-0.008074
-0.016130
-0.185320
-0.378679
-0.467302
-0.483415
-0.507585
-0.515642
-0.563982
-0.596208
-0.580095
-0.539812
-0.499529
-0.499529
-0.443132
-0.394792
-0.386736
-0.370622
-0.378679
-0.370622
-0.322283
-0.362566
-0.346453
-0.298113
-0.265886
-0.241716
-0.273943
-0.225603
-0.217546
-0.241716
-0.225603
-0.225603
-0.217546
-0.177263
-0.193376
-0.225603
-0.225603
-0.241716
-0.273943
-0.290056
-0.290056
-0.314226
-0.306169
-0.354509
-0.257830
-0.161150
-0.112810
-0.136980
-0.185320
-0.169206
-0.177263
-0.257830
-0.290056
-0.290056
-0.298113
-0.306169
-0.306169
-0.265886
-0.257830
-0.265886
-0.209490
-0.217546
-0.201433
-0.201433
-0.136980
-0.120867
-0.161150
-0.096697
-0.145037
-0.104753
-0.088640
-0.064470
0.225569
0.451155
0.563948
0.580061
0.547835
0.563948
0.539778
0.499495
0.515608
0.483381
0.507551
0.483381
0.451155
0.426985
0.362532
0.338362
0.290022
0.241682
0.185286
0.193342
0.153059
0.145003
0.153059
0.072493
0.056379
0.048323
0.032210
-0.016130
-0.008074
-0.016130
-0.048357
-0.024187
-0.008074
-0.016130
-0.032244
0.024153
-0.008074
-0.016130
0.016096
-0.024187
0.032210
0.040266
0.024153
-0.016130
-0.008074
-0.000017
0.040266
-0.008074
-0.000017
-0.000017
0.016096
-0.000017
0.008040
0.040266
0.008040
0.024153
0.016096
0.032210
0.016096
0.008040
0.032210
-0.000017
-0.000017
0.064436
0.016096
-0.072527
-0.298113
-0.459246
-0.499529
-0.499529
-0.499529
-0.515642
-0.483415
-0.467302
-0.451189
-0.467302
-0.402849
-0.386736
-0.322283
-0.225603
-0.249773
-0.177263
-0.177263
-0.128923
-0.145037
-0.112810
-0.088640
-0.072527
-0.040300
-0.008074
-0.000017
-0.024187
-0.000017
0.008040
0.016096
-0.016130
-0.016130
-0.008074
-0.008074
-0.008074
-0.056413
-0.040300
-0.024187
-0.024187
-0.040300
-0.088640
-0.080583
-0.064470
-0.064470
-0.072527
-0.104753
-0.088640
-0.120867
-0.096697
-0.128923
-0.072527
-0.096697
-0.088640
-0.080583
-0.080583
-0.096697
-0.064470
-0.056413
-0.080583
-0.080583
-0.064470
-0.056413
-0.048357
-0.016130
0.088606
0.145003
0.257795
0.378645
0.418928
0.475325
0.483381
0.459212
0.402815
0.443098
0.426985
0.402815
0.346419
0.290022
0.241682
0.193342
0.177229
0.096663
0.096663
0.064436
0.056379
0.048323
0.016096
0.024153
-0.008074
-0.040300
0.016096
-0.008074
-0.032244
-0.000017
-0.040300
-0.032244
0.016096
-0.040300
0.024153
-0.016130
-0.016130
-0.008074
0.016096
-0.000017
-0.024187
-0.008074
0.008040
0.008040
-0.008074
-0.016130
-0.000017
0.016096
-0.008074
-0.000017
-0.000017
0.008040
0.024153
-0.008074
-0.008074
0.016096
0.056379
-0.008074
0.032210
-0.008074
0.032210
0.024153
-0.000017
0.008040
0.048323
-0.000017
0.024153
-0.080583
-0.233660
-0.314226
-0.378679
-0.394792
-0.418962
-0.386736
-0.378679
-0.362566
-0.346453
-0.265886
-0.233660
-0.145037
-0.128923
-0.120867
-0.096697
-0.056413
-0.040300
-0.080583
-0.056413
-0.024187
0.008040
-0.000017
-0.000017
0.040266
0.024153
-0.032244
0.008040
0.008040
-0.008074
-0.016130
-0.016130
-0.000017
0.008040
-0.056413
-0.024187
-0.040300
-0.024187
-0.040300
-0.016130
-0.048357
-0.024187
-0.000017
-0.040300
-0.016130
-0.024187
-0.040300
-0.024187
-0.056413
-0.040300
-0.048357
-0.064470
-0.016130
-0.048357
-0.016130
-0.008074
-0.040300
-0.056413
-0.016130
-0.048357
-0.056413
-0.024187
-0.000017
-0.016130
0.048323
0.169172
0.306135
0.346419
0.346419
0.394758
0.402815
0.394758
0.370588
0.322249
0.249739
0.177229
0.136946
0.136946
0.088606
0.080549
0.096663
0.048323
0.032210
0.040266
0.128889
0.177229
0.201399
0.217512
0.096663
0.088606
0.064436
0.016096
0.024153
0.032210
0.016096
0.016096
0.016096
0.032210
-0.008074
-0.016130
0.016096
0.032210
-0.024187
0.016096
-0.016130
-0.000017
-0.008074
-0.000017
0.016096
-0.008074
0.032210
0.008040
0.016096
0.008040
-0.008074
0.040266
-0.000017
0.008040
0.008040
0.008040
0.024153
0.008040
0.040266
0.008040
-0.000017
0.008040
0.008040
0.016096
-0.000017
-0.161150
-0.290056
-0.330339
-0.354509
-0.378679
-0.362566
-0.410906
-0.386736
-0.338396
-0.249773
-0.209490
-0.136980
-0.128923
-0.072527
-0.072527
-0.048357
-0.040300
-0.016130
-0.016130
0.016096
-0.000017
0.008040
0.016096
-0.000017
0.032210
0.040266
0.024153
-0.000017
0.008040
0.016096
-0.008074
-0.008074
-0.000017
-0.024187
0.016096
-0.000017
-0.024187
-0.000017
-0.008074
-0.008074
-0.016130
-0.008074
-0.024187
-0.016130
-0.016130
-0.040300
-0.040300
0.008040
-0.048357
-0.056413
-0.032244
-0.032244
-0.032244
-0.024187
-0.040300
-0.032244
-0.008074
-0.040300
-0.024187
-0.048357
-0.056413
-0.040300
-0.000017
-0.056413
0.104719
0.273909
0.314192
0.362532
0.378645
0.394758
0.386702
0.330305
0.306135
0.257795
0.201399
0.153059
0.128889
0.104719
0.088606
0.080549
0.056379
0.024153
-0.000017
0.040266
-0.032244
-0.040300
-0.024187
-0.024187
-0.000017
-0.048357
-0.024187
-0.040300
-0.024187
-0.032244
-0.024187
-0.000017
-0.032244
-0.000017
0.008040
-0.008074
-0.024187
-0.016130
-0.040300
-0.008074
-0.032244
-0.008074
-0.016130
-0.032244
0.032210
-0.040300
-0.000017
-0.024187
0.024153
0.153059
0.193342
0.185286
0.201399
0.193342
0.112776
0.056379
0.064436
0.048323
0.064436
0.016096
0.048323
0.048323
0.048323
-0.000017
-0.088640
-0.257830
-0.322283
-0.370622
-0.394792
-0.386736
-0.370622
-0.378679
-0.322283
-0.249773
-0.185320
-0.169206
-0.120867
-0.072527
-0.072527
-0.024187
-0.056413
-0.008074
-0.008074
-0.032244
-0.000017
0.016096
0.008040
0.040266
-0.000017
-0.008074
0.032210
0.040266
0.032210
0.048323
-0.000017
-0.016130
0.032210
0.024153
0.048323
-0.016130
-0.016130
-0.000017
-0.032244
-0.024187
0.032210
-0.024187
-0.032244
-0.040300
-0.064470
-0.040300
-0.024187
-0.040300
-0.032244
-0.024187
-0.032244
-0.040300
-0.056413
0.008040
-0.024187
-0.016130
-0.000017
-0.048357
-0.024187
-0.040300
-0.000017
-0.000017
0.008040
-0.000017
0.104719
0.233626
0.314192
0.362532
0.354475
0.386702
0.354475
0.370588
0.346419
0.290022
0.185286
0.161116
0.136946
0.096663
0.096663
0.056379
0.032210
0.048323
-0.008074
0.024153
-0.000017
0.016096
-0.016130
-0.048357
-0.016130
-0.024187
-0.016130
-0.056413
-0.016130
-0.032244
-0.016130
-0.008074
-0.016130
-0.032244
-0.024187
-0.032244
-0.016130
-0.008074
-0.016130
-0.032244
-0.008074
0.016096
-0.016130
0.024153
0.016096
-0.024187
-0.008074
-0.000017
-0.024187
0.008040
-0.024187
0.008040
0.008040
0.040266
0.016096
0.008040
-0.024187
0.016096
-0.000017
-0.000017
-0.016130
0.008040
0.016096
-0.024187
-0.136980
-0.314226
-0.370622
-0.394792
-0.402849
-0.410906
-0.427019
-0.394792
-0.378679
-0.217546
-0.056413
0.080549
0.128889
0.136946
0.120833
0.112776
0.080549
0.072493
0.032210
0.024153
0.008040
0.008040
0.032210
0.032210
0.008040
0.008040
0.008040
0.024153
0.016096
-0.000017
-0.016130
0.016096
-0.032244
-0.008074
-0.024187
-0.008074
-0.024187
-0.040300
-0.016130
-0.016130
-0.040300
-0.064470
-0.008074
-0.064470
-0.056413
-0.024187
-0.040300
-0.016130
-0.048357
-0.016130
-0.008074
-0.048357
-0.064470
-0.032244
-0.048357
-0.040300
-0.032244
-0.016130
-0.048357
-0.024187
-0.016130
-0.000017
0.016096
-0.032244
0.104719
0.257795
0.346419
0.354475
0.330305
0.346419
0.354475
0.322249
0.322249
0.265852
0.209456
0.128889
0.104719
0.088606
0.072493
0.072493
0.008040
0.016096
-0.008074
-0.008074
-0.016130
-0.024187
-0.008074
-0.008074
-0.064470
0.008040
-0.000017
-0.040300
-0.032244
-0.024187
-0.024187
-0.008074
-0.000017
-0.024187
-0.024187
-0.040300
0.024153
-0.000017
0.008040
-0.000017
0.032210
-0.016130
-0.024187
0.024153
-0.032244
-0.008074
0.032210
0.008040
-0.016130
-0.008074
0.016096
0.024153
-0.000017
-0.000017
0.008040
0.008040
0.016096
0.032210
0.008040
-0.000017
-0.000017
0.040266
-0.000017
-0.000017
-0.136980
-0.265886
-0.281999
-0.394792
-0.378679
-0.402849
-0.410906
-0.362566
-0.330339
-0.249773
-0.177263
-0.145037
-0.112810
-0.120867
-0.064470
-0.064470
-0.048357
-0.032244
-0.008074
0.032210
-0.000017
0.008040
0.008040
0.024153
-0.008074
0.016096
0.056379
-0.000017
0.008040
-0.016130
-0.000017
-0.024187
0.008040
-0.008074
-0.016130
-0.000017
-0.024187
-0.008074
0.112776
0.201399
0.209456
0.185286
0.161116
0.104719
0.072493
0.024153
0.024153
0.016096
-0.024187
-0.008074
-0.008074
0.016096
-0.048357
-0.040300
-0.048357
-0.064470
-0.032244
-0.040300
-0.040300
-0.024187
-0.032244
-0.008074
-0.016130
0.008040
0.128889
0.281965
0.322249
0.354475
0.354475
0.370588
0.370588
0.362532
0.306135
0.241682
0.169172
0.128889
0.088606
0.072493
0.080549
0.048323
0.008040
0.016096
-0.016130
-0.000017
-0.032244
-0.048357
0.016096
-0.024187
-0.016130
-0.024187
0.008040
-0.000017
-0.008074
-0.032244
-0.032244
-0.040300
-0.024187
0.008040
0.024153
0.032210
0.016096
0.024153
0.008040
0.024153
0.008040
0.024153
0.008040
0.008040
-0.008074
-0.016130
0.016096
0.024153
0.008040
-0.000017
-0.000017
-0.008074
-0.000017
0.032210
-0.000017
0.016096
-0.000017
-0.000017
0.024153
0.024153
0.016096
0.016096
0.008040
-0.016130
-0.136980
-0.273943
-0.354509
-0.378679
-0.370622
-0.370622
-0.378679
-0.394792
-0.298113
-0.257830
-0.185320
-0.177263
-0.136980
-0.104753
-0.064470
-0.056413
-0.056413
-0.032244
-0.000017
0.008040
0.024153
0.024153
0.024153
0.016096
-0.008074
0.032210
0.016096
-0.000017
0.016096
0.008040
-0.016130
-0.000017
-0.008074
-0.008074
0.008040
-0.016130
-0.024187
-0.008074
-0.024187
-0.024187
-0.032244
-0.008074
-0.016130
-0.008074
-0.008074
-0.048357
-0.056413
-0.048357
-0.032244
-0.024187
-0.040300
-0.032244
-0.016130
-0.048357
-0.040300
-0.032244
-0.016130
-0.040300
-0.024187
-0.016130
-0.032244
0.112776
0.185286
0.241682
0.338362
0.459212
0.507551
0.451155
0.443098
0.435042
0.410872
0.362532
0.338362
0.249739
0.209456
0.145003
0.128889
0.112776
0.096663
0.040266
0.048323
-0.024187
0.024153
-0.040300
-0.008074
-0.016130
0.008040
-0.008074
0.016096
-0.016130
-0.024187
-0.008074
-0.016130
-0.016130
0.016096
-0.040300
0.008040
-0.016130
-0.040300
-0.016130
-0.000017
-0.016130
0.016096
0.008040
0.008040
-0.008074
0.008040
0.008040
-0.032244
0.008040
-0.000017
-0.016130
0.024153
0.008040
0.024153
0.032210
0.016096
-0.000017
0.016096
0.024153
0.016096
0.016096
0.016096
0.008040
0.024153
-0.024187
0.008040
-0.000017
-0.136980
-0.298113
-0.370622
-0.354509
-0.394792
-0.386736
-0.378679
-0.338396
-0.298113
-0.233660
-0.177263
-0.161150
-0.104753
-0.112810
-0.088640
-0.072527
-0.040300
-0.048357
0.008040
-0.016130
-0.000017
0.016096
0.016096
0.040266
0.032210
0.024153
0.048323
-0.016130
0.016096
-0.016130
0.016096
-0.016130
0.016096
0.008040
-0.040300
-0.000017
0.016096
-0.008074
-0.040300
0.040266
0.008040
-0.024187
-0.016130
-0.040300
-0.000017
-0.032244
-0.016130
-0.008074
-0.040300
-0.040300
-0.032244
-0.008074
-0.040300
-0.016130
-0.016130
-0.040300
-0.040300
-0.040300
-0.008074
-0.024187
-0.016130
-0.008074
-0.048357
0.016096
0.104719
0.273909
0.314192
0.394758
0.378645
0.370588
0.354475
0.322249
0.298079
0.209456
0.161116
0.161116
0.096663
0.112776
0.088606
0.056379
0.040266
0.008040
0.016096
-0.040300
-0.032244
-0.032244
-0.048357
-0.016130
-0.048357
-0.048357
0.024153
0.169172
0.177229
0.193342
0.169172
0.104719
0.064436
0.040266
0.056379
0.016096
0.008040
0.008040
0.016096
0.024153
0.016096
0.024153
0.024153
0.008040
0.032210
0.016096
0.016096
-0.016130
0.024153
0.008040
0.008040
0.056379
0.032210
0.008040
0.032210
0.008040
-0.000017
-0.000017
0.016096
0.008040
0.048323
0.016096
-0.000017
-0.016130
-0.185320
-0.306169
-0.338396
-0.354509
-0.386736
-0.386736
-0.394792
-0.330339
-0.330339
-0.225603
-0.177263
-0.112810
-0.120867
-0.120867
-0.072527
-0.024187
-0.056413
-0.008074
-0.008074
0.024153
0.024153
0.016096
0.016096
0.024153
0.016096
0.032210
0.040266
-0.008074
0.040266
0.008040
0.032210
-0.024187
-0.016130
0.008040
-0.016130
-0.000017
-0.016130
0.008040
-0.000017
-0.000017
-0.000017
0.008040
0.032210
-0.024187
-0.024187
-0.000017
-0.000017
-0.024187
-0.008074
-0.008074
-0.016130
-0.016130
-0.048357
-0.032244
-0.032244
-0.032244
-0.024187
-0.032244
-0.024187
-0.064470
-0.032244
-0.016130
-0.024187
0.016096
0.169172
0.290022
0.354475
0.370588
0.402815
0.410872
0.346419
0.370588
0.281965
0.233626
0.145003
0.128889
0.072493
0.072493
0.072493
0.056379
0.032210
0.040266
-0.016130
0.016096
-0.032244
-0.040300
-0.008074
-0.032244
-0.024187
0.016096
0.024153
-0.008074
-0.008074
-0.048357
-0.000017
-0.000017
-0.016130
-0.000017
-0.024187
-0.024187
-0.008074
0.032210
0.032210
-0.008074
-0.032244
-0.024187
-0.032244
-0.016130
-0.008074
0.008040
-0.008074
-0.008074
-0.000017
-0.016130
-0.032244
0.016096
0.112776
0.185286
0.241682
0.249739
0.185286
0.145003
0.088606
0.104719
0.064436
0.024153
0.048323
-0.008074
-0.153093
-0.290056
-0.306169
-0.354509
-0.370622
-0.394792
-0.362566
-0.370622
-0.281999
-0.201433
-0.185320
-0.145037
-0.120867
-0.088640
-0.080583
-0.056413
-0.056413
-0.000017
-0.016130
-0.024187
-0.008074
-0.000017
0.040266
0.024153
0.008040
0.032210
0.016096
-0.000017
0.008040
-0.008074
0.016096
0.032210
0.016096
0.008040
-0.000017
-0.008074
-0.016130
0.016096
-0.008074
-0.016130
-0.040300
-0.016130
-0.016130
-0.008074
-0.040300
-0.032244
-0.040300
-0.016130
-0.024187
-0.016130
-0.000017
-0.032244
0.008040
-0.032244
-0.008074
-0.048357
-0.040300
-0.024187
-0.024187
-0.016130
-0.016130
-0.016130
-0.016130
0.024153
0.209456
0.306135
0.322249
0.346419
0.370588
0.370588
0.354475
0.322249
0.265852
0.233626
0.185286
0.136946
0.072493
0.096663
0.080549
0.048323
0.032210
0.016096
0.016096
-0.032244
-0.008074
-0.032244
-0.000017
-0.008074
-0.024187
-0.040300
-0.008074
-0.024187
-0.024187
-0.032244
-0.048357
-0.024187
-0.024187
-0.000017
-0.024187
-0.016130
-0.024187
-0.024187
-0.008074
-0.024187
-0.008074
-0.000017
-0.000017
-0.000017
0.008040
0.008040
-0.008074
-0.016130
0.008040
0.024153
0.016096
0.040266
-0.008074
-0.000017
0.008040
0.016096
0.032210
0.016096
0.024153
0.016096
-0.000017
-0.016130
0.032210
0.008040
-0.161150
-0.314226
-0.346453
-0.402849
-0.402849
-0.410906
-0.354509
-0.346453
-0.290056
-0.241716
-0.177263
-0.145037
-0.128923
-0.112810
-0.112810
-0.096697
0.032210
0.193342
0.209456
0.217512
0.241682
0.185286
0.233626
0.161116
0.145003
0.104719
0.056379
0.032210
0.016096
-0.008074
0.024153
0.032210
-0.008074
-0.024187
0.016096
-0.016130
-0.024187
-0.024187
-0.024187
-0.000017
0.008040
-0.040300
-0.008074
0.016096
0.016096
-0.048357
-0.024187
-0.016130
-0.008074
-0.016130
-0.016130
-0.000017
-0.032244
-0.032244
-0.008074
-0.024187
-0.008074
-0.016130
-0.008074
-0.016130
-0.016130
-0.032244
-0.016130
0.040266
0.153059
0.338362
0.346419
0.370588
0.330305
0.378645
0.394758
0.386702
0.322249
0.209456
0.177229
0.128889
0.104719
0.056379
0.064436
0.064436
0.040266
0.040266
-0.000017
-0.000017
-0.008074
-0.008074
-0.016130
-0.048357
-0.016130
-0.008074
-0.024187
-0.008074
-0.024187
-0.024187
-0.008074
-0.016130
-0.000017
0.008040
0.008040
-0.016130
-0.016130
0.016096
0.008040
-0.000017
-0.016130
-0.024187
0.016096
0.016096
-0.000017
0.008040
-0.000017
0.024153
0.024153
0.064436
0.016096
-0.000017
-0.000017
0.008040
0.080549
-0.008074
0.008040
0.016096
-0.000017
0.016096
0.040266
0.032210
0.016096
-0.056413
-0.209490
-0.338396
-0.370622
-0.378679
-0.394792
-0.394792
-0.370622
-0.338396
-0.290056
-0.249773
-0.169206
-0.120867
-0.096697
-0.080583
-0.064470
-0.072527
-0.032244
-0.048357
0.016096
-0.032244
0.008040
0.024153
-0.008074
0.008040
0.032210
-0.000017
0.016096
0.008040
0.016096
-0.016130
-0.008074
-0.024187
-0.000017
-0.040300
-0.024187
-0.032244
-0.000017
-0.032244
-0.016130
0.072493
0.136946
0.201399
0.185286
0.169172
0.112776
0.072493
0.056379
0.016096
-0.016130
0.008040
0.024153
0.016096
-0.000017
-0.000017
0.008040
-0.016130
-0.008074
-0.024187
-0.056413
-0.016130
-0.032244
-0.016130
-0.040300
0.048323
0.177229
0.322249
0.330305
0.346419
0.370588
0.394758
0.346419
0.330305
0.281965
0.201399
0.177229
0.104719
0.080549
0.088606
0.040266
0.080549
0.024153
0.016096
-0.032244
-0.016130
-0.040300
-0.032244
-0.016130
-0.016130
0.008040
-0.016130
-0.032244
-0.016130
-0.024187
-0.024187
-0.008074
-0.032244
-0.040300
-0.016130
-0.032244
0.016096
-0.008074
0.024153
-0.000017
-0.008074
0.016096
0.008040
0.016096
0.040266
-0.024187
-0.000017
-0.016130
0.008040
0.016096
-0.000017
-0.016130
0.032210
0.016096
0.048323
0.008040
0.024153
-0.008074
-0.000017
-0.008074
-0.016130
-0.000017
0.008040
-0.000017
-0.064470
-0.193376
-0.281999
-0.362566
-0.402849
-0.362566
-0.427019
-0.402849
-0.362566
-0.273943
-0.209490
-0.201433
-0.153093
-0.104753
-0.080583
-0.072527
-0.048357
-0.072527
-0.016130
-0.016130
-0.000017
0.032210
-0.008074
-0.008074
-0.016130
-0.024187
0.016096
-0.000017
0.016096
0.016096
-0.016130
-0.016130
-0.008074
-0.032244
-0.000017
0.008040
-0.016130
0.008040
-0.024187
-0.008074
0.016096
-0.016130
0.008040
-0.040300
-0.064470
-0.008074
-0.016130
-0.008074
-0.048357
-0.032244
-0.048357
-0.024187
-0.032244
-0.008074
-0.008074
-0.016130
-0.040300
-0.016130
-0.048357
-0.040300
-0.040300
-0.024187
-0.032244
-0.040300
0.024153
0.193342
0.322249
0.346419
0.330305
0.402815
0.499495
0.539778
0.588118
0.531721
0.378645
0.338362
0.225569
0.185286
0.136946
0.096663
0.064436
0.024153
0.032210
0.024153
0.016096
0.008040
-0.032244
0.008040
0.016096
-0.032244
-0.000017
-0.016130
-0.032244
-0.008074
0.024153
-0.008074
-0.016130
-0.016130
-0.016130
-0.000017
-0.032244
-0.000017
-0.008074
-0.024187
0.016096
0.008040
0.008040
-0.008074
-0.008074
0.040266
0.016096
-0.000017
-0.008074
-0.008074
-0.000017
0.008040
-0.000017
-0.008074
0.016096
-0.000017
0.008040
0.008040
-0.008074
-0.000017
0.032210
0.032210
-0.000017
0.008040
-0.048357
-0.177263
-0.330339
-0.378679
-0.402849
-0.394792
-0.386736
-0.378679
-0.338396
-0.281999
-0.217546
-0.177263
-0.136980
-0.112810
-0.096697
-0.080583
-0.056413
-0.024187
-0.016130
-0.000017
-0.016130
0.008040
0.016096
0.008040
0.032210
0.016096
0.024153
0.032210
0.016096
0.008040
-0.008074
0.024153
0.016096
0.048323
0.064436
-0.024187
0.008040
0.008040
-0.008074
-0.000017
-0.016130
-0.016130
-0.024187
-0.000017
-0.008074
-0.008074
-0.016130
-0.024187
-0.000017
-0.040300
-0.000017
0.016096
-0.016130
-0.040300
0.008040
-0.032244
-0.000017
-0.000017
-0.024187
-0.024187
-0.040300
0.008040
-0.032244
-0.000017
0.064436
0.233626
0.322249
0.338362
0.378645
0.386702
0.354475
0.370588
0.362532
0.265852
0.185286
0.153059
0.120833
0.096663
0.096663
0.048323
0.024153
-0.000017
0.008040
-0.008074
-0.008074
-0.048357
-0.016130
-0.032244
-0.056413
-0.008074
-0.040300
-0.040300
-0.032244
-0.032244
-0.032244
0.040266
0.201399
0.217512
0.209456
0.201399
0.136946
0.096663
0.072493
0.104719
0.032210
-0.000017
0.032210
0.016096
0.024153
0.024153
0.024153
0.008040
0.008040
0.008040
0.016096
0.016096
0.032210
-0.000017
0.072493
0.024153
0.008040
-0.016130
0.008040
0.008040
-0.000017
0.040266
0.024153
0.016096
-0.056413
-0.233660
-0.346453
-0.362566
-0.370622
-0.370622
-0.394792
-0.362566
-0.330339
-0.281999
-0.209490
-0.161150
-0.128923
-0.120867
-0.088640
-0.072527
-0.040300
-0.016130
0.008040
-0.008074
-0.024187
0.008040
0.008040
0.032210
0.040266
0.040266
0.040266
0.024153
0.024153
0.048323
0.024153
0.016096
0.048323
0.008040
0.024153
-0.000017
0.016096
0.008040
-0.008074
0.024153
-0.032244
-0.016130
0.032210
-0.000017
-0.008074
-0.032244
-0.024187
0.008040
-0.040300
-0.000017
-0.024187
-0.024187
-0.016130
-0.040300
-0.048357
-0.000017
-0.008074
-0.000017
-0.000017
-0.024187
-0.024187
-0.040300
-0.040300
-0.000017
0.048323
0.241682
0.314192
0.378645
0.386702
0.346419
0.394758
0.362532
0.346419
0.257795
0.225569
0.169172
0.145003
0.112776
0.072493
0.080549
0.048323
0.032210
-0.032244
-0.000017
-0.000017
-0.040300
0.008040
-0.024187
-0.024187
-0.000017
-0.040300
-0.008074
0.008040
-0.040300
-0.008074
0.016096
-0.008074
-0.000017
0.008040
-0.008074
-0.024187
0.024153
-0.008074
-0.032244
-0.016130
0.008040
-0.008074
-0.024187
-0.000017
-0.008074
0.032210
0.016096
-0.016130
-0.000017
-0.008074
-0.008074
-0.000017
-0.016130
-0.008074
0.016096
-0.000017
0.016096
-0.016130
0.040266
0.169172
0.241682
0.249739
0.233626
0.088606
-0.064470
-0.161150
-0.257830
-0.330339
-0.346453
-0.354509
-0.370622
-0.306169
-0.265886
-0.185320
-0.169206
-0.104753
-0.088640
-0.040300
-0.088640
-0.048357
-0.056413
0.016096
0.032210
0.024153
0.024153
0.016096
0.008040
-0.008074
0.024153
-0.016130
0.008040
0.016096
-0.000017
0.032210
0.024153
0.016096
0.008040
0.024153
-0.008074
0.032210
0.008040
-0.008074
-0.040300
-0.000017
-0.040300
-0.000017
-0.008074
-0.016130
0.016096
-0.000017
-0.008074
-0.008074
-0.056413
-0.000017
-0.008074
-0.032244
-0.008074
-0.000017
-0.016130
-0.032244
-0.032244
-0.008074
-0.032244
-0.024187
-0.032244
-0.040300
-0.064470
0.096663
0.217512
0.330305
0.378645
0.362532
0.386702
0.378645
0.354475
0.322249
0.241682
0.249739
0.145003
0.112776
0.096663
0.096663
0.056379
0.056379
-0.008074
0.032210
0.008040
-0.016130
-0.016130
-0.016130
-0.032244
-0.000017
-0.000017
-0.024187
-0.024187
-0.024187
-0.000017
-0.008074
-0.032244
-0.000017
-0.000017
-0.040300
0.048323
-0.032244
-0.008074
0.008040
-0.016130
-0.024187
-0.024187
-0.008074
0.024153
0.016096
0.032210
0.024153
-0.000017
-0.000017
0.008040
0.032210
0.040266
0.008040
-0.008074
-0.000017
0.008040
-0.008074
0.016096
-0.000017
0.008040
0.008040
-0.008074
0.024153
-0.000017
-0.088640
-0.273943
-0.322283
-0.378679
-0.370622
-0.370622
-0.402849
-0.378679
-0.330339
-0.281999
-0.225603
-0.177263
-0.104753
-0.112810
-0.064470
-0.064470
-0.032244
-0.016130
0.024153
0.153059
0.225569
0.241682
0.233626
0.209456
0.201399
0.104719
0.096663
0.072493
0.040266
0.008040
0.016096
0.032210
0.008040
-0.008074
-0.008074
-0.024187
-0.000017
0.024153
-0.016130
0.016096
0.008040
-0.016130
-0.032244
-0.056413
-0.040300
-0.024187
-0.048357
-0.040300
-0.024187
-0.032244
-0.000017
0.008040
0.008040
-0.000017
-0.016130
-0.024187
-0.008074
-0.016130
-0.032244
-0.024187
-0.008074
-0.040300
-0.024187
-0.008074
0.120833
0.273909
0.322249
0.378645
0.386702
0.402815
0.338362
0.370588
0.330305
0.273909
0.193342
0.153059
0.112776
0.104719
0.080549
0.056379
0.064436
0.040266
-0.000017
0.008040
-0.008074
-0.016130
-0.016130
-0.016130
-0.008074
-0.024187
-0.032244
-0.024187
-0.008074
0.008040
-0.016130
0.016096
-0.000017
0.032210
-0.000017
-0.040300
-0.016130
-0.024187
-0.032244
-0.016130
-0.008074
0.016096
-0.016130
-0.008074
0.040266
-0.000017
-0.000017
0.008040
0.016096
0.008040
0.008040
-0.000017
0.008040
0.048323
0.056379
-0.008074
0.024153
0.008040
-0.000017
0.032210
0.008040
-0.000017
-0.000017
-0.008074
-0.128923
-0.273943
-0.346453
-0.322283
-0.362566
-0.370622
-0.418962
-0.354509
-0.306169
-0.273943
-0.201433
-0.145037
-0.104753
-0.104753
-0.064470
-0.080583
-0.056413
-0.008074
0.024153
-0.008074
-0.000017
0.040266
-0.008074
-0.008074
0.008040
0.008040
0.032210
0.008040
0.016096
0.016096
-0.016130
-0.008074
-0.000017
0.016096
-0.016130
-0.008074
-0.000017
-0.000017
-0.016130
0.008040
-0.040300
-0.024187
-0.024187
-0.024187
-0.040300
-0.000017
-0.040300
-0.056413
0.016096
0.169172
0.209456
0.225569
0.209456
0.193342
0.136946
0.120833
0.056379
0.032210
0.040266
0.008040
-0.008074
0.008040
-0.024187
-0.016130
0.112776
0.241682
0.338362
0.386702
0.402815
0.394758
0.410872
0.338362
0.306135
0.225569
0.209456
0.136946
0.104719
0.072493
0.072493
0.040266
0.032210
0.016096
0.016096
-0.016130
-0.048357
-0.016130
-0.040300
-0.040300
-0.032244
-0.024187
-0.024187
-0.056413
-0.016130
-0.016130
-0.016130
0.008040
-0.000017
-0.008074
-0.000017
-0.000017
-0.016130
0.024153
-0.008074
-0.008074
-0.008074
-0.008074
0.008040
0.008040
-0.016130
0.016096
-0.000017
0.048323
0.032210
0.032210
-0.000017
-0.024187
0.016096
0.008040
-0.000017
0.008040
-0.000017
-0.000017
-0.008074
0.008040
0.032210
0.024153
0.024153
0.016096
-0.136980
-0.233660
-0.322283
-0.370622
-0.394792
-0.394792
-0.394792
-0.362566
-0.298113
-0.217546
-0.169206
-0.136980
-0.096697
-0.128923
-0.072527
-0.080583
-0.048357
-0.000017
-0.008074
0.024153
-0.000017
0.008040
-0.008074
0.024153
-0.000017
0.008040
0.024153
0.008040
0.024153
-0.000017
0.024153
0.016096
0.016096
0.016096
-0.016130
-0.000017
-0.016130
0.008040
-0.016130
0.008040
0.008040
0.016096
-0.008074
-0.032244
-0.016130
-0.032244
-0.016130
-0.000017
-0.032244
-0.048357
-0.032244
-0.032244
-0.000017
-0.000017
-0.024187
-0.048357
-0.032244
-0.032244
-0.032244
-0.008074
-0.016130
-0.024187
-0.048357
-0.024187
0.161116
0.249739
0.322249
0.354475
0.354475
0.386702
0.354475
0.314192
0.281965
0.273909
0.362532
0.322249
0.362532
0.330305
0.273909
0.217512
0.169172
0.096663
0.072493
0.048323
-0.032244
-0.000017
-0.024187
-0.024187
-0.008074
0.024153
-0.032244
0.008040
-0.000017
-0.008074
-0.024187
-0.024187
-0.024187
0.008040
-0.032244
-0.000017
0.032210
0.032210
-0.016130
0.024153
0.008040
0.024153
0.040266
-0.000017
0.024153
-0.000017
0.040266
0.016096
-0.008074
-0.000017
0.008040
0.008040
0.016096
0.024153
0.032210
0.024153
-0.016130
0.008040
0.008040
0.024153
-0.000017
0.016096
0.016096
-0.016130
-0.169206
-0.290056
-0.362566
-0.386736
-0.370622
-0.386736
-0.354509
-0.314226
-0.290056
-0.217546
-0.161150
-0.153093
-0.112810
-0.088640
-0.064470
-0.040300
-0.048357
-0.008074
-0.000017
-0.016130
0.024153
0.040266
0.008040
0.032210
0.016096
-0.008074
0.016096
-0.016130
-0.008074
0.008040
0.024153
0.008040
0.008040
0.008040
-0.016130
0.032210
0.016096
-0.024187
0.008040
-0.008074
-0.024187
-0.024187
-0.000017
-0.000017
-0.024187
-0.016130
-0.008074
-0.008074
-0.064470
-0.032244
-0.032244
0.008040
0.032210
-0.016130
-0.016130
-0.000017
-0.008074
-0.000017
-0.016130
-0.032244
-0.024187
-0.032244
-0.016130
-0.000017
0.153059
0.281965
0.330305
0.378645
0.354475
0.338362
0.370588
0.362532
0.290022
0.233626
0.201399
0.153059
0.080549
0.096663
0.080549
0.064436
0.024153
-0.000017
-0.000017
-0.016130
-0.032244
0.008040
-0.032244
-0.048357
-0.024187
-0.048357
-0.048357
-0.008074
-0.032244
-0.024187
-0.008074
-0.040300
-0.032244
-0.008074
-0.016130
-0.024187
-0.016130
0.008040
0.128889
0.201399
0.241682
0.233626
0.217512
0.217512
0.161116
0.104719
0.096663
0.096663
0.024153
0.016096
0.040266
0.048323
0.008040
0.008040
0.024153
0.008040
0.008040
0.008040
-0.008074
0.008040
0.024153
-0.016130
0.032210
0.016096
-0.177263
-0.290056
-0.354509
-0.370622
-0.386736
-0.402849
-0.394792
-0.370622
-0.322283
-0.257830
-0.185320
-0.136980
-0.120867
-0.104753
-0.104753
-0.032244
-0.016130
-0.056413
-0.000017
0.008040
-0.008074
-0.008074
-0.016130
0.024153
0.008040
0.032210
0.008040
-0.000017
0.024153
0.040266
0.024153
0.032210
0.008040
0.024153
-0.008074
0.032210
-0.032244
-0.008074
0.016096
-0.016130
-0.000017
0.016096
-0.032244
-0.032244
-0.016130
-0.016130
-0.040300
-0.040300
-0.040300
-0.024187
-0.008074
-0.008074
0.008040
-0.000017
-0.032244
-0.000017
0.008040
-0.024187
-0.032244
-0.024187
0.016096
-0.000017
-0.048357
0.024153
0.161116
0.273909
0.362532
0.370588
0.370588
0.386702
0.370588
0.346419
0.314192
0.241682
0.209456
0.169172
0.104719
0.072493
0.056379
0.056379
0.040266
-0.016130
0.008040
0.008040
-0.024187
-0.008074
-0.024187
0.008040
0.008040
-0.008074
-0.024187
-0.016130
-0.008074
-0.008074
-0.032244
-0.008074
-0.016130
-0.000017
-0.000017
-0.024187
-0.008074
0.024153
-0.000017
0.008040
-0.000017
-0.008074
-0.016130
0.016096
-0.016130
0.008040
-0.008074
0.016096
-0.008074
-0.000017
0.024153
0.008040
0.016096
-0.016130
0.032210
-0.008074
-0.000017
-0.024187
-0.000017
-0.008074
-0.000017
0.120833
0.225569
0.177229
0.056379
-0.056413
-0.217546
-0.193376
-0.273943
-0.346453
-0.338396
-0.306169
-0.273943
-0.249773
-0.177263
-0.128923
-0.120867
-0.096697
-0.112810
-0.080583
-0.016130
0.008040
0.016096
0.032210
0.016096
-0.008074
0.024153
0.016096
0.032210
-0.000017
-0.000017
0.032210
0.032210
-0.040300
0.008040
0.024153
-0.000017
-0.000017
-0.008074
-0.016130
-0.016130
0.032210
-0.008074
-0.056413
-0.016130
-0.008074
-0.008074
-0.024187
0.008040
-0.016130
0.016096
-0.032244
-0.008074
-0.032244
-0.048357
-0.040300
-0.024187
-0.056413
-0.032244
-0.000017
-0.032244
-0.024187
-0.008074
-0.024187
-0.040300
-0.000017
-0.024187
0.016096
0.169172
0.298079
0.338362
0.370588
0.386702
0.362532
0.346419
0.322249
0.306135
0.233626
0.177229
0.128889
0.104719
0.080549
0.072493
0.080549
0.088606
0.016096
-0.008074
-0.024187
0.056379
-0.000017
-0.024187
-0.016130
-0.040300
-0.024187
-0.000017
-0.000017
0.008040
-0.000017
-0.000017
-0.016130
-0.000017
-0.016130
0.016096
-0.000017
-0.000017
0.024153
-0.000017
0.008040
