-0.750199
-0.717972
-0.709915
-0.685745
-0.637406
-0.605179
-0.564896
-0.548783
-0.564896
-0.613236
-0.572953
-0.540726
-0.492386
-0.476273
-0.452103
-0.403763
-0.387650
-0.363480
-0.339310
-0.363480
-0.315140
-0.242630
-0.162064
-0.097611
-0.129837
-0.121781
-0.105667
-0.129837
-0.081497
-0.129837
-0.129837
-0.081497
-0.081497
-0.057328
-0.033158
0.007126
0.023239
-0.008988
-0.008988
0.023239
-0.017044
0.031296
0.023239
0.007126
-0.000931
-0.017044
-0.017044
-0.008988
-0.008988
-0.025101
-0.025101
-0.041214
-0.041214
-0.057328
-0.041214
-0.033158
-0.049271
-0.025101
-0.065384
-0.049271
-0.065384
-0.041214
-0.057328
-0.049271
-0.041214
-0.025101
-0.049271
-0.049271
-0.025101
-0.041214
-0.000931
0.248825
0.514694
0.675827
0.651657
0.619430
0.587204
0.554977
0.563034
0.546921
0.466354
0.450241
0.466354
0.474411
0.434128
0.361618
0.289108
0.264938
0.264938
0.224655
0.176315
0.184372
0.119919
0.087692
0.087692
0.079635
0.063522
0.015182
-0.000931
0.144088
0.216598
0.248825
0.216598
0.152145
0.168258
0.111862
0.103805
0.063522
0.031296
0.007126
0.015182
-0.008988
-0.000931
0.007126
-0.008988
0.007126
0.015182
-0.000931
-0.025101
-0.017044
0.031296
-0.017044
-0.008988
-0.008988
-0.000931
0.015182
-0.000931
-0.008988
0.023239
0.007126
-0.017044
0.007126
0.007126
-0.008988
-0.017044
-0.226517
-0.484329
-0.613236
-0.645462
-0.589066
-0.613236
-0.581009
-0.564896
-0.516556
-0.508499
-0.452103
-0.476273
-0.444046
-0.395706
-0.331253
-0.282913
-0.234574
-0.226517
-0.194290
-0.186234
-0.154007
-0.121781
-0.113724
-0.105667
-0.065384
-0.089554
-0.033158
-0.017044
-0.000931
-0.017044
-0.008988
-0.017044
-0.000931
0.023239
0.007126
-0.000931
0.007126
-0.008988
-0.017044
-0.008988
-0.025101
-0.017044
-0.008988
-0.025101
-0.025101
-0.041214
-0.041214
-0.008988
-0.033158
-0.081497
-0.025101
-0.025101
-0.008988
-0.065384
-0.057328
-0.057328
-0.033158
-0.017044
-0.017044
-0.041214
-0.000931
-0.057328
-0.033158
-0.025101
-0.049271
0.055465
0.281051
0.393844
0.474411
0.458297
0.482467
0.482467
0.474411
0.442184
0.401901
0.434128
0.442184
0.345505
0.289108
0.224655
0.200485
0.176315
0.103805
0.127975
0.079635
0.071579
0.079635
0.039352
0.031296
0.007126
-0.017044
-0.008988
-0.017044
0.007126
-0.008988
-0.041214
-0.041214
-0.057328
-0.033158
-0.017044
-0.049271
-0.017044
-0.041214
-0.033158
-0.041214
-0.041214
-0.008988
-0.017044
-0.008988
0.015182
-0.025101
-0.017044
-0.025101
-0.008988
-0.000931
-0.041214
-0.041214
-0.025101
-0.017044
0.007126
-0.008988
0.031296
0.152145
0.240768
0.224655
0.240768
0.224655
0.192428
0.144088
0.103805
0.111862
0.039352
-0.178177
-0.315140
-0.395706
-0.460160
-0.427933
-0.452103
-0.403763
-0.419876
-0.435990
-0.395706
-0.331253
-0.250687
-0.210404
-0.162064
-0.145951
-0.129837
-0.113724
-0.097611
-0.073441
-0.033158
-0.033158
-0.008988
-0.025101
0.007126
-0.008988
-0.000931
0.007126
-0.025101
0.023239
0.031296
0.031296
0.031296
-0.033158
-0.000931
-0.008988
-0.008988
-0.017044
-0.049271
-0.049271
-0.033158
-0.049271
-0.033158
-0.049271
-0.033158
-0.033158
-0.033158
-0.041214
-0.065384
-0.033158
-0.025101
-0.025101
-0.041214
-0.049271
-0.057328
-0.033158
-0.073441
-0.041214
-0.033158
-0.065384
-0.017044
-0.033158
-0.049271
-0.008988
-0.008988
0.160202
0.329391
0.418014
0.434128
0.434128
0.409958
0.377731
0.393844
0.418014
0.313278
0.264938
0.216598
0.200485
0.152145
0.127975
0.087692
0.079635
0.071579
0.055465
0.007126
0.031296
0.015182
-0.000931
-0.033158
-0.017044
-0.049271
-0.008988
-0.025101
-0.033158
-0.041214
-0.017044
-0.033158
0.031296
-0.000931
0.007126
-0.008988
-0.000931
0.015182
-0.008988
0.015182
-0.000931
-0.017044
-0.025101
0.015182
-0.017044
-0.025101
0.007126
-0.000931
-0.008988
0.007126
-0.008988
0.007126
0.023239
-0.025101
0.007126
-0.008988
0.039352
0.039352
-0.000931
0.031296
0.007126
-0.008988
0.015182
0.015182
-0.154007
-0.307083
-0.395706
-0.460160
-0.444046
-0.435990
-0.403763
-0.411820
-0.427933
-0.355423
-0.315140
-0.258744
-0.210404
-0.178177
-0.121781
0.047409
0.127975
0.184372
0.200485
0.136032
0.184372
0.136032
0.127975
0.160202
0.119919
0.079635
0.079635
0.015182
0.015182
-0.025101
0.007126
0.039352
0.015182
0.023239
-0.008988
-0.017044
-0.008988
0.015182
-0.008988
-0.008988
-0.025101
-0.033158
-0.057328
-0.025101
-0.017044
-0.041214
-0.041214
-0.017044
-0.041214
-0.008988
-0.017044
-0.025101
-0.025101
-0.049271
-0.033158
-0.049271
-0.041214
-0.033158
-0.073441
-0.041214
-0.049271
-0.008988
-0.017044
-0.008988
0.087692
0.264938
0.353561
0.409958
0.418014
0.385788
0.353561
0.377731
0.345505
0.329391
0.281051
0.224655
0.200485
0.144088
0.095749
0.095749
0.087692
0.063522
0.055465
0.015182
0.023239
-0.025101
-0.017044
-0.008988
-0.049271
-0.017044
-0.017044
-0.008988
-0.008988
-0.017044
0.007126
-0.025101
-0.017044
-0.049271
0.007126
-0.000931
-0.033158
-0.017044
-0.033158
-0.033158
-0.041214
-0.008988
0.023239
-0.033158
0.007126
-0.000931
-0.008988
0.007126
-0.025101
0.015182
0.015182
0.023239
-0.000931
-0.000931
0.007126
0.015182
0.031296
0.047409
-0.000931
-0.017044
-0.000931
-0.008988
-0.008988
0.023239
-0.065384
-0.258744
-0.387650
-0.419876
-0.419876
-0.411820
-0.403763
-0.395706
-0.403763
-0.355423
-0.282913
-0.226517
-0.178177
-0.178177
-0.105667
-0.113724
-0.105667
-0.073441
-0.025101
-0.017044
0.007126
-0.000931
0.015182
-0.008988
0.031296
0.015182
-0.008988
-0.008988
-0.017044
-0.017044
0.007126
-0.008988
-0.000931
-0.000931
-0.025101
-0.041214
-0.049271
-0.025101
-0.041214
-0.033158
-0.041214
-0.049271
-0.017044
0.087692
0.184372
0.232712
0.240768
0.216598
0.192428
0.152145
0.127975
0.136032
0.063522
0.031296
0.047409
-0.017044
-0.000931
-0.025101
-0.041214
-0.033158
-0.017044
-0.033158
0.015182
0.015182
0.055465
0.248825
0.369674
0.385788
0.434128
0.377731
0.401901
0.393844
0.377731
0.313278
0.216598
0.208542
0.168258
0.144088
0.127975
0.055465
0.103805
0.047409
0.039352
0.023239
-0.033158
-0.025101
0.007126
-0.025101
-0.008988
-0.033158
-0.057328
-0.041214
-0.008988
-0.017044
-0.000931
-0.033158
-0.033158
-0.033158
-0.033158
-0.025101
0.007126
-0.008988
0.015182
-0.000931
-0.000931
-0.025101
-0.017044
-0.000931
-0.008988
-0.017044
0.023239
-0.017044
-0.025101
-0.017044
-0.000931
-0.008988
-0.025101
-0.000931
-0.000931
-0.017044
0.007126
-0.000931
0.031296
-0.000931
0.007126
0.023239
0.031296
-0.000931
-0.017044
-0.258744
-0.355423
-0.419876
-0.419876
-0.411820
-0.419876
-0.395706
-0.387650
-0.355423
-0.290970
-0.226517
-0.162064
-0.145951
-0.129837
-0.105667
-0.097611
-0.097611
-0.041214
-0.049271
-0.017044
-0.017044
0.007126
-0.000931
-0.000931
-0.000931
0.023239
-0.025101
-0.000931
-0.017044
-0.049271
0.007126
0.007126
-0.008988
0.023239
0.007126
0.015182
-0.008988
-0.017044
-0.000931
-0.008988
-0.017044
-0.017044
-0.033158
-0.025101
-0.008988
-0.008988
-0.033158
-0.025101
-0.017044
-0.041214
-0.057328
-0.033158
-0.041214
-0.049271
-0.041214
-0.041214
-0.025101
-0.057328
-0.057328
-0.041214
-0.033158
-0.017044
-0.033158
0.031296
0.256881
0.442184
0.619430
0.619430
0.627487
0.603317
0.546921
0.530807
0.466354
0.361618
0.240768
0.200485
0.127975
0.087692
0.079635
0.111862
0.079635
0.023239
0.007126
-0.000931
-0.025101
-0.025101
-0.033158
-0.041214
-0.025101
-0.017044
0.007126
-0.041214
-0.017044
-0.041214
-0.033158
0.031296
-0.033158
-0.008988
-0.008988
-0.000931
-0.000931
-0.025101
-0.033158
-0.008988
-0.017044
-0.008988
-0.033158
-0.017044
-0.008988
-0.008988
0.015182
0.047409
0.007126
0.015182
-0.008988
0.007126
-0.000931
-0.000931
-0.000931
0.023239
-0.000931
0.023239
0.023239
-0.025101
0.023239
-0.008988
0.015182
-0.065384
-0.234574
-0.347367
-0.411820
-0.427933
-0.419876
-0.387650
-0.427933
-0.379593
-0.347367
-0.266800
-0.226517
-0.186234
-0.178177
-0.113724
-0.081497
-0.113724
-0.033158
-0.057328
-0.025101
-0.033158
-0.000931
-0.000931
-0.000931
-0.017044
0.023239
0.015182
0.031296
0.015182
-0.000931
0.007126
-0.000931
0.007126
0.015182
0.015182
-0.025101
0.007126
-0.008988
-0.017044
0.007126
0.007126
-0.008988
-0.033158
-0.025101
-0.017044
-0.041214
-0.025101
-0.017044
-0.000931
-0.025101
-0.041214
-0.017044
-0.017044
-0.041214
-0.041214
-0.041214
-0.049271
-0.041214
-0.057328
-0.033158
-0.025101
-0.008988
-0.049271
-0.033158
0.023239
0.224655
0.353561
0.385788
0.385788
0.401901
0.345505
0.369674
0.353561
0.313278
0.281051
0.176315
0.168258
0.160202
0.071579
0.071579
0.047409
0.055465
0.015182
-0.008988
0.007126
-0.025101
-0.017044
0.007126
-0.041214
-0.057328
-0.017044
-0.057328
-0.041214
-0.025101
-0.057328
0.023239
0.160202
0.224655
0.248825
0.240768
0.200485
0.168258
0.136032
0.111862
0.071579
0.039352
0.015182
0.039352
0.023239
0.007126
-0.008988
-0.000931
0.039352
0.023239
0.023239
-0.000931
0.007126
-0.025101
-0.017044
0.031296
0.015182
0.031296
-0.000931
0.031296
0.023239
-0.025101
0.007126
0.031296
-0.049271
-0.226517
-0.371537
-0.419876
-0.395706
-0.419876
-0.411820
-0.403763
-0.395706
-0.355423
-0.299027
-0.258744
-0.186234
-0.129837
-0.129837
-0.097611
-0.097611
-0.089554
-0.065384
-0.041214
-0.025101
-0.025101
0.007126
-0.008988
-0.008988
0.007126
0.015182
0.007126
-0.025101
0.007126
-0.008988
0.023239
-0.008988
0.039352
0.007126
-0.008988
0.015182
-0.025101
-0.008988
0.007126
-0.025101
-0.008988
-0.025101
-0.033158
-0.025101
-0.049271
-0.057328
-0.041214
-0.008988
-0.033158
-0.008988
-0.025101
-0.065384
-0.008988
-0.033158
-0.017044
-0.049271
-0.041214
-0.033158
-0.057328
-0.049271
-0.049271
-0.057328
-0.049271
0.055465
0.264938
0.321335
0.426071
0.377731
0.361618
0.401901
0.345505
0.345505
0.353561
0.272995
0.208542
0.192428
0.119919
0.095749
0.087692
0.087692
0.039352
-0.000931
0.047409
-0.017044
-0.017044
-0.017044
0.007126
-0.025101
-0.017044
-0.025101
-0.017044
-0.025101
0.007126
-0.025101
-0.033158
-0.000931
0.007126
-0.033158
-0.049271
0.007126
0.007126
-0.008988
-0.049271
0.007126
-0.000931
-0.033158
-0.008988
0.007126
0.007126
0.007126
-0.000931
-0.025101
-0.017044
-0.025101
-0.017044
-0.017044
-0.049271
-0.033158
-0.025101
0.031296
0.152145
0.216598
0.240768
0.248825
0.200485
0.176315
0.152145
0.047409
-0.121781
-0.282913
-0.347367
-0.355423
-0.379593
-0.387650
-0.387650
-0.363480
-0.331253
-0.274857
-0.178177
-0.170120
-0.154007
-0.105667
-0.089554
-0.105667
-0.065384
-0.073441
-0.033158
-0.000931
-0.000931
-0.008988
0.023239
-0.008988
0.023239
0.007126
-0.025101
0.007126
0.007126
-0.017044
0.015182
-0.000931
0.015182
-0.000931
0.015182
-0.000931
0.007126
-0.017044
-0.025101
-0.041214
-0.025101
-0.033158
-0.025101
-0.049271
-0.041214
-0.008988
-0.041214
-0.025101
-0.049271
-0.033158
-0.025101
-0.041214
-0.025101
-0.025101
-0.049271
-0.049271
-0.041214
-0.033158
-0.008988
-0.025101
-0.025101
-0.049271
-0.033158
0.063522
0.248825
0.377731
0.426071
0.385788
0.361618
0.361618
0.361618
0.337448
0.329391
0.281051
0.200485
0.152145
0.144088
0.111862
0.071579
0.079635
0.047409
0.007126
-0.017044
-0.000931
-0.008988
-0.000931
0.023239
-0.017044
-0.017044
-0.025101
-0.033158
-0.025101
-0.017044
0.007126
0.015182
-0.000931
-0.041214
0.023239
-0.000931
0.007126
-0.017044
-0.025101
-0.025101
-0.017044
-0.008988
0.031296
-0.000931
-0.000931
-0.025101
-0.000931
0.023239
-0.000931
0.007126
-0.008988
0.007126
-0.000931
0.015182
0.015182
-0.000931
-0.017044
-0.000931
-0.025101
0.023239
0.023239
0.015182
0.023239
0.007126
-0.097611
-0.274857
-0.339310
-0.452103
-0.444046
-0.387650
-0.435990
-0.379593
-0.387650
-0.363480
-0.299027
-0.234574
-0.210404
-0.178177
-0.129837
-0.129837
-0.105667
-0.081497
-0.073441
-0.057328
-0.000931
0.119919
0.216598
0.272995
0.224655
0.200485
0.208542
0.168258
0.127975
0.111862
0.119919
0.031296
0.015182
-0.000931
0.007126
0.023239
0.015182
-0.008988
-0.000931
-0.008988
0.007126
-0.025101
-0.017044
-0.025101
-0.008988
-0.041214
-0.033158
-0.033158
-0.033158
-0.033158
-0.025101
-0.000931
-0.033158
-0.065384
-0.017044
-0.049271
-0.008988
-0.008988
-0.049271
0.007126
-0.008988
0.007126
-0.033158
-0.000931
0.087692
0.297165
0.377731
0.426071
0.393844
0.385788
0.393844
0.377731
0.337448
0.321335
0.248825
0.176315
0.144088
0.119919
0.095749
0.079635
0.039352
0.039352
0.047409
-0.008988
0.015182
-0.008988
-0.008988
-0.017044
-0.041214
-0.008988
-0.000931
-0.017044
-0.000931
0.007126
0.015182
-0.041214
-0.017044
-0.008988
-0.000931
-0.017044
-0.000931
-0.017044
-0.000931
0.015182
0.031296
-0.025101
-0.000931
-0.000931
-0.000931
0.015182
0.015182
-0.000931
0.007126
-0.000931
-0.025101
0.015182
0.015182
0.007126
0.039352
0.007126
-0.008988
0.023239
-0.008988
0.047409
-0.033158
0.023239
0.047409
-0.000931
-0.089554
-0.266800
-0.387650
-0.387650
-0.419876
-0.371537
-0.387650
-0.387650
-0.395706
-0.339310
-0.266800
-0.186234
-0.129837
-0.137894
-0.073441
-0.065384
-0.113724
-0.057328
-0.041214
-0.000931
-0.033158
0.007126
0.023239
0.007126
-0.000931
0.007126
0.023239
-0.025101
0.007126
-0.025101
-0.017044
-0.017044
-0.017044
0.023239
-0.025101
-0.017044
-0.017044
-0.041214
-0.041214
-0.008988
-0.008988
-0.041214
-0.025101
-0.025101
0.111862
0.192428
0.208542
0.208542
0.184372
0.136032
0.144088
0.071579
0.095749
0.031296
0.023239
-0.008988
-0.017044
-0.017044
-0.025101
-0.033158
-0.049271
-0.041214
-0.049271
-0.033158
0.079635
0.281051
0.361618
0.418014
0.409958
0.377731
0.409958
0.369674
0.353561
0.313278
0.248825
0.216598
0.160202
0.111862
0.119919
0.071579
0.079635
0.079635
0.031296
0.023239
-0.008988
0.007126
-0.049271
-0.017044
-0.049271
-0.008988
-0.008988
-0.025101
-0.017044
-0.033158
-0.017044
-0.025101
-0.041214
-0.017044
-0.025101
-0.017044
-0.033158
0.007126
-0.033158
-0.017044
-0.000931
0.007126
-0.008988
-0.000931
0.023239
-0.000931
-0.000931
0.031296
-0.008988
-0.000931
-0.000931
0.031296
0.007126
0.023239
0.015182
0.055465
0.007126
0.015182
-0.000931
0.015182
-0.008988
-0.025101
0.023239
0.007126
-0.105667
-0.282913
-0.387650
-0.419876
-0.427933
-0.403763
-0.387650
-0.411820
-0.395706
-0.347367
-0.274857
-0.226517
-0.170120
-0.137894
-0.121781
-0.121781
-0.097611
-0.049271
-0.065384
-0.000931
0.007126
0.007126
0.007126
-0.000931
0.023239
-0.000931
0.015182
-0.033158
-0.008988
-0.017044
-0.008988
0.007126
0.023239
-0.025101
-0.008988
-0.008988
0.023239
0.015182
-0.000931
-0.025101
-0.033158
-0.008988
-0.017044
-0.025101
-0.000931
-0.033158
-0.033158
-0.025101
-0.041214
-0.017044
-0.057328
-0.041214
-0.057328
-0.017044
-0.017044
-0.041214
-0.041214
-0.049271
-0.025101
-0.041214
-0.017044
-0.017044
-0.025101
-0.041214
0.095749
0.240768
0.369674
0.393844
0.369674
0.369674
0.353561
0.337448
0.329391
0.353561
0.490524
0.426071
0.409958
0.393844
0.305221
0.264938
0.232712
0.192428
0.176315
0.111862
0.047409
-0.000931
0.031296
-0.000931
-0.041214
-0.049271
-0.008988
-0.025101
-0.041214
-0.017044
-0.000931
-0.033158
-0.025101
-0.025101
0.015182
-0.000931
0.007126
0.023239
-0.025101
-0.025101
-0.033158
-0.017044
-0.000931
-0.017044
0.015182
0.015182
0.007126
-0.008988
-0.000931
0.039352
-0.000931
0.023239
-0.008988
-0.017044
-0.025101
-0.000931
-0.000931
0.007126
0.007126
0.007126
0.007126
-0.033158
0.031296
0.023239
-0.097611
-0.258744
-0.395706
-0.411820
-0.403763
-0.379593
-0.371537
-0.387650
-0.387650
-0.355423
-0.234574
-0.194290
-0.178177
-0.137894
-0.081497
-0.089554
-0.057328
-0.073441
-0.041214
-0.008988
-0.017044
0.031296
-0.000931
0.015182
-0.000931
0.007126
0.015182
0.007126
-0.008988
0.023239
-0.000931
-0.008988
-0.025101
-0.008988
-0.033158
-0.025101
0.007126
0.015182
-0.025101
-0.008988
-0.017044
-0.025101
-0.057328
0.007126
0.039352
-0.025101
-0.033158
-0.025101
0.015182
-0.017044
-0.049271
-0.017044
-0.041214
-0.008988
-0.049271
-0.025101
-0.041214
-0.008988
-0.041214
-0.025101
-0.008988
-0.025101
-0.008988
-0.000931
0.127975
0.297165
0.353561
0.401901
0.393844
0.393844
0.401901
0.377731
0.361618
0.313278
0.240768
0.176315
0.152145
0.095749
0.087692
0.055465
0.063522
0.063522
-0.008988
-0.008988
-0.017044
-0.041214
-0.049271
-0.025101
-0.017044
-0.049271
-0.000931
-0.065384
-0.041214
-0.049271
-0.081497
-0.049271
-0.033158
-0.041214
0.023239
0.168258
0.208542
0.208542
0.256881
0.216598
0.184372
0.160202
0.111862
0.079635
0.047409
-0.008988
0.031296
0.015182
0.015182
-0.008988
-0.008988
0.023239
0.007126
0.007126
0.015182
-0.000931
-0.008988
0.023239
-0.017044
0.015182
-0.000931
0.015182
0.039352
-0.017044
-0.089554
-0.299027
-0.387650
-0.444046
-0.427933
-0.355423
-0.355423
-0.387650
-0.339310
-0.315140
-0.258744
-0.194290
-0.170120
-0.129837
-0.097611
-0.065384
-0.049271
-0.065384
-0.025101
-0.057328
-0.000931
0.015182
-0.008988
-0.000931
-0.000931
0.015182
-0.008988
-0.000931
-0.017044
-0.017044
0.023239
0.015182
-0.017044
0.015182
-0.033158
-0.000931
0.015182
-0.008988
-0.000931
-0.008988
0.007126
-0.008988
-0.008988
0.023239
-0.049271
-0.025101
-0.041214
-0.073441
-0.017044
-0.033158
-0.008988
-0.000931
-0.033158
-0.041214
-0.025101
-0.025101
-0.008988
-0.000931
-0.000931
-0.000931
-0.017044
-0.000931
-0.041214
-0.025101
0.103805
0.305221
0.345505
0.385788
0.385788
0.393844
0.369674
0.353561
0.353561
0.313278
0.216598
0.184372
0.127975
0.111862
0.095749
0.111862
0.039352
0.079635
0.063522
0.031296
0.007126
-0.000931
-0.017044
-0.017044
0.007126
-0.025101
-0.041214
-0.000931
-0.033158
-0.025101
-0.008988
-0.041214
-0.017044
-0.057328
-0.025101
-0.000931
-0.008988
-0.008988
-0.008988
-0.000931
-0.000931
-0.008988
0.007126
-0.017044
-0.008988
0.015182
-0.017044
0.039352
0.015182
0.015182
-0.033158
-0.000931
0.007126
-0.000931
0.023239
-0.008988
0.007126
0.023239
-0.033158
-0.000931
0.007126
-0.033158
0.015182
0.136032
0.079635
-0.073441
-0.145951
-0.210404
-0.250687
-0.282913
-0.258744
-0.290970
-0.258744
-0.218460
-0.162064
-0.154007
-0.129837
-0.089554
-0.097611
-0.057328
-0.057328
-0.065384
-0.025101
-0.008988
0.007126
-0.008988
-0.000931
0.015182
0.023239
-0.017044
-0.008988
-0.000931
0.007126
-0.025101
0.031296
0.023239
0.015182
-0.017044
-0.008988
-0.000931
0.007126
-0.008988
-0.025101
0.007126
-0.025101
-0.033158
0.007126
-0.025101
-0.008988
-0.033158
-0.057328
-0.008988
-0.057328
-0.041214
-0.025101
-0.025101
-0.025101
-0.033158
-0.041214
-0.025101
-0.017044
-0.033158
-0.049271
-0.025101
-0.033158
-0.008988
-0.000931
-0.000931
0.095749
0.297165
0.401901
0.385788
0.393844
0.385788
0.369674
0.353561
0.369674
0.313278
0.208542
0.176315
0.144088
0.144088
0.103805
0.079635
0.063522
0.015182
0.047409
0.015182
-0.033158
0.015182
-0.033158
-0.025101
-0.025101
-0.000931
-0.049271
-0.008988
0.023239
-0.008988
-0.017044
-0.033158
-0.033158
-0.025101
-0.033158
-0.025101
-0.017044
-0.000931
-0.033158
-0.008988
0.007126
-0.017044
-0.000931
0.007126
-0.000931
0.039352
-0.017044
-0.000931
0.015182
-0.000931
0.007126
0.047409
-0.000931
0.015182
0.023239
0.023239
-0.000931
-0.008988
-0.017044
0.015182
-0.008988
-0.017044
-0.008988
-0.000931
-0.154007
-0.331253
-0.395706
-0.460160
-0.411820
-0.395706
-0.411820
-0.363480
-0.379593
-0.323197
-0.250687
-0.210404
-0.154007
-0.121781
-0.105667
-0.105667
-0.081497
-0.049271
-0.033158
-0.025101
-0.025101
0.007126
0.152145
0.240768
0.224655
0.240768
0.200485
0.176315
0.127975
0.127975
0.111862
0.111862
0.039352
0.031296
-0.000931
-0.033158
-0.000931
-0.017044
-0.017044
-0.008988
-0.008988
-0.000931
-0.025101
-0.025101
0.015182
-0.000931
-0.033158
-0.041214
-0.017044
-0.041214
-0.000931
-0.025101
-0.017044
-0.033158
-0.025101
-0.017044
-0.041214
-0.041214
-0.025101
-0.041214
-0.000931
-0.017044
-0.008988
-0.017044
0.127975
0.329391
0.369674
0.426071
0.418014
0.345505
0.353561
0.377731
0.369674
0.272995
0.208542
0.200485
0.136032
0.127975
0.079635
0.087692
0.079635
0.039352
0.007126
-0.000931
0.007126
-0.017044
-0.033158
-0.000931
-0.033158
-0.025101
0.023239
-0.017044
-0.025101
-0.033158
-0.017044
-0.017044
-0.000931
-0.008988
-0.017044
-0.033158
-0.041214
-0.033158
0.007126
0.007126
0.047409
0.023239
-0.008988
0.007126
0.007126
0.015182
0.031296
-0.000931
0.023239
0.023239
-0.000931
0.023239
-0.000931
0.023239
0.023239
0.023239
0.007126
0.015182
0.031296
0.007126
-0.008988
0.007126
-0.017044
-0.008988
-0.186234
-0.290970
-0.403763
-0.419876
-0.371537
-0.379593
-0.411820
-0.427933
-0.371537
-0.282913
-0.234574
-0.178177
-0.145951
-0.129837
-0.089554
-0.097611
-0.057328
-0.025101
-0.017044
-0.033158
-0.025101
-0.017044
-0.000931
0.015182
-0.000931
0.007126
0.007126
-0.008988
-0.017044
-0.017044
0.023239
-0.008988
0.015182
0.015182
0.023239
-0.008988
-0.008988
-0.041214
-0.049271
-0.008988
-0.033158
-0.025101
-0.033158
-0.049271
-0.049271
-0.065384
-0.049271
-0.041214
-0.041214
-0.008988
-0.041214
0.031296
0.168258
0.232712
0.248825
0.200485
0.168258
0.152145
0.111862
0.127975
0.063522
0.063522
0.047409
0.023239
0.160202
0.313278
0.393844
0.418014
0.377731
0.377731
0.369674
0.393844
0.385788
0.321335
0.224655
0.176315
0.127975
0.111862
0.055465
0.071579
0.039352
0.031296
-0.017044
-0.008988
-0.008988
-0.000931
-0.025101
-0.017044
-0.000931
-0.033158
-0.041214
-0.008988
-0.025101
-0.041214
-0.041214
-0.025101
0.007126
-0.008988
-0.033158
-0.008988
-0.008988
-0.000931
0.007126
0.015182
0.039352
-0.017044
0.015182
0.047409
-0.017044
-0.000931
0.007126
0.015182
0.023239
0.023239
0.007126
0.007126
0.023239
-0.000931
0.031296
0.031296
-0.008988
0.007126
-0.008988
-0.008988
-0.008988
0.023239
-0.008988
-0.025101
-0.129837
-0.323197
-0.355423
-0.435990
-0.387650
-0.387650
-0.395706
-0.379593
-0.307083
-0.274857
-0.202347
-0.202347
-0.170120
-0.121781
-0.121781
-0.065384
-0.081497
-0.041214
-0.049271
0.007126
-0.000931
0.007126
-0.008988
-0.008988
0.015182
-0.017044
0.023239
0.015182
0.007126
0.007126
-0.017044
-0.000931
-0.000931
-0.000931
0.023239
-0.008988
-0.008988
0.015182
-0.017044
-0.008988
-0.017044
-0.017044
-0.008988
0.039352
-0.000931
-0.041214
-0.065384
-0.033158
-0.017044
0.007126
-0.041214
-0.033158
-0.000931
-0.017044
-0.017044
-0.008988
-0.025101
-0.025101
-0.017044
-0.008988
-0.017044
-0.033158
-0.033158
0.047409
0.127975
0.305221
0.369674
0.385788
0.393844
0.337448
0.353561
0.361618
0.321335
0.240768
0.192428
0.160202
0.200485
0.289108
0.313278
0.329391
0.313278
0.240768
0.192428
0.168258
0.127975
0.095749
0.095749
-0.000931
-0.008988
-0.008988
-0.008988
0.007126
-0.033158
-0.033158
-0.025101
-0.025101
-0.017044
-0.057328
-0.008988
-0.000931
-0.033158
-0.008988
-0.008988
0.007126
-0.008988
-0.008988
0.023239
0.007126
0.047409
0.007126
0.031296
-0.008988
0.047409
-0.008988
-0.000931
-0.000931
-0.000931
0.031296
0.015182
-0.017044
0.015182
-0.008988
0.015182
0.007126
0.015182
0.023239
0.007126
-0.049271
-0.154007
-0.315140
-0.387650
-0.387650
-0.419876
-0.411820
-0.395706
-0.371537
-0.355423
-0.290970
-0.210404
-0.178177
-0.162064
-0.137894
-0.105667
-0.081497
-0.049271
-0.057328
-0.041214
-0.008988
0.031296
0.015182
-0.000931
0.047409
0.007126
0.007126
-0.008988
0.023239
-0.008988
0.007126
0.023239
-0.008988
0.007126
0.015182
-0.008988
0.007126
-0.033158
-0.041214
-0.000931
-0.025101
0.007126
0.031296
-0.033158
-0.025101
-0.033158
0.007126
0.007126
-0.017044
-0.017044
-0.025101
-0.025101
-0.049271
-0.033158
-0.025101
-0.000931
-0.025101
-0.008988
-0.025101
-0.000931
-0.008988
-0.017044
-0.017044
-0.017044
0.015182
0.168258
0.297165
0.401901
0.385788
0.377731
0.337448
0.353561
0.361618
0.393844
0.305221
0.232712
0.176315
0.127975
0.136032
0.071579
0.071579
0.047409
0.031296
0.047409
-0.017044
-0.008988
-0.033158
-0.041214
-0.033158
-0.000931
-0.017044
-0.000931
0.007126
-0.025101
-0.033158
-0.065384
-0.033158
-0.033158
-0.033158
-0.033158
-0.008988
-0.025101
-0.041214
-0.057328
-0.025101
0.023239
0.184372
0.232712
0.232712
0.256881
0.216598
0.192428
0.176315
0.111862
0.079635
0.055465
0.039352
0.047409
0.007126
0.031296
0.023239
0.015182
0.015182
0.007126
-0.000931
0.031296
-0.017044
-0.017044
-0.057328
-0.226517
-0.299027
-0.427933
-0.435990
-0.444046
-0.395706
-0.419876
-0.411820
-0.355423
-0.323197
-0.258744
-0.194290
-0.145951
-0.129837
-0.121781
-0.081497
-0.073441
-0.025101
-0.017044
-0.025101
-0.008988
0.007126
0.023239
-0.000931
-0.025101
0.031296
-0.017044
-0.033158
-0.017044
-0.000931
-0.008988
0.007126
-0.000931
-0.008988
-0.000931
-0.033158
0.007126
-0.033158
-0.033158
0.007126
-0.017044
-0.008988
-0.008988
-0.017044
-0.000931
-0.008988
-0.017044
-0.025101
-0.008988
-0.017044
-0.000931
-0.033158
-0.025101
-0.025101
-0.033158
-0.033158
0.007126
-0.041214
-0.017044
-0.017044
-0.017044
-0.033158
-0.025101
0.023239
0.192428
0.313278
0.393844
0.401901
0.385788
0.369674
0.393844
0.353561
0.313278
0.313278
0.224655
0.184372
0.152145
0.144088
0.087692
0.087692
0.047409
0.039352
0.039352
0.007126
-0.033158
-0.025101
-0.025101
-0.041214
-0.025101
-0.017044
-0.025101
-0.041214
-0.008988
-0.008988
-0.057328
-0.008988
0.015182
-0.033158
-0.000931
-0.017044
-0.008988
-0.017044
-0.000931
0.007126
0.007126
0.015182
0.007126
0.023239
-0.000931
0.031296
0.031296
-0.008988
-0.017044
-0.000931
0.063522
0.015182
0.015182
-0.008988
-0.017044
0.007126
-0.000931
-0.000931
-0.000931
-0.017044
-0.041214
-0.000931
-0.000931
0.039352
-0.017044
-0.121781
-0.129837
-0.226517
-0.194290
-0.202347
-0.250687
-0.266800
-0.258744
-0.242630
-0.202347
-0.170120
-0.154007
-0.089554
-0.081497
-0.081497
-0.041214
-0.033158
-0.017044
-0.025101
-0.000931
0.007126
0.007126
-0.000931
-0.000931
0.007126
0.007126
-0.000931
0.023239
0.015182
0.015182
0.007126
-0.033158
-0.025101
-0.025101
-0.017044
-0.008988
-0.025101
-0.017044
-0.008988
-0.033158
-0.017044
-0.049271
-0.025101
-0.008988
-0.025101
0.007126
-0.017044
-0.008988
0.015182
-0.008988
-0.017044
-0.025101
-0.041214
-0.025101
-0.008988
-0.017044
-0.025101
-0.025101
-0.033158
-0.000931
-0.008988
-0.049271
0.023239
0.168258
0.321335
0.401901
0.361618
0.385788
0.369674
0.385788
0.337448
0.337448
0.256881
0.200485
0.160202
0.136032
0.111862
0.079635
0.039352
0.087692
0.055465
0.039352
0.007126
0.007126
0.007126
-0.041214
-0.017044
-0.017044
-0.025101
-0.025101
-0.025101
-0.008988
0.015182
-0.017044
-0.008988
-0.017044
0.007126
-0.000931
-0.008988
-0.000931
-0.025101
0.015182
-0.033158
-0.033158
0.007126
-0.000931
-0.017044
-0.000931
0.031296
0.047409
0.031296
0.015182
0.015182
0.023239
-0.025101
-0.008988
0.007126
0.007126
-0.000931
0.007126
0.023239
-0.008988
0.023239
-0.000931
-0.008988
0.015182
-0.041214
-0.218460
-0.355423
-0.419876
-0.403763
-0.427933
-0.395706
-0.395706
-0.395706
-0.347367
-0.282913
-0.194290
-0.218460
-0.186234
-0.129837
-0.113724
-0.113724
-0.065384
-0.065384
-0.041214
-0.025101
-0.017044
-0.000931
-0.033158
-0.008988
-0.000931
-0.025101
-0.017044
-0.049271
-0.000931
0.111862
0.200485
0.208542
0.240768
0.200485
0.232712
0.192428
0.168258
0.152145
0.087692
0.047409
0.079635
-0.000931
-0.008988
-0.025101
-0.000931
-0.025101
-0.025101
-0.033158
-0.017044
-0.057328
-0.025101
-0.041214
-0.049271
-0.065384
-0.033158
-0.049271
-0.025101
-0.017044
-0.033158
-0.033158
-0.000931
-0.049271
-0.049271
0.047409
0.176315
0.321335
0.409958
0.434128
0.393844
0.377731
0.377731
0.353561
0.369674
0.289108
0.208542
0.184372
0.168258
0.087692
0.111862
0.039352
0.071579
0.055465
0.023239
-0.033158
-0.033158
-0.025101
-0.041214
-0.049271
-0.033158
-0.008988
-0.033158
-0.017044
0.007126
-0.057328
0.007126
-0.017044
-0.041214
-0.025101
-0.033158
-0.008988
-0.008988
-0.033158
-0.041214
0.023239
-0.008988
-0.033158
-0.000931
0.007126
0.007126
0.007126
0.015182
-0.008988
0.023239
-0.008988
0.015182
-0.025101
-0.008988
0.023239
0.023239
0.007126
0.007126
0.023239
-0.000931
0.007126
0.007126
-0.008988
0.007126
-0.041214
-0.194290
-0.363480
-0.395706
-0.427933
-0.371537
-0.379593
-0.395706
-0.355423
-0.331253
-0.274857
-0.218460
-0.210404
-0.154007
-0.113724
-0.097611
-0.073441
-0.073441
-0.057328
-0.033158
-0.017044
-0.025101
-0.008988
0.007126
-0.000931
-0.000931
-0.000931
0.007126
-0.000931
0.031296
-0.033158
-0.000931
-0.000931
0.007126
-0.008988
-0.008988
-0.008988
0.007126
-0.025101
-0.017044
-0.025101
-0.025101
-0.000931
-0.033158
0.015182
-0.025101
-0.049271
-0.033158
-0.033158
-0.041214
-0.025101
-0.049271
-0.057328
-0.065384
-0.049271
0.063522
0.136032
0.200485
0.224655
0.184372
0.168258
0.144088
0.127975
0.063522
0.103805
0.256881
0.377731
0.393844
0.393844
0.426071
0.369674
0.401901
0.369674
0.297165
0.289108
0.224655
0.152145
0.111862
0.079635
0.055465
0.063522
0.047409
0.007126
0.015182
-0.017044
-0.033158
-0.049271
0.007126
-0.008988
-0.000931
-0.049271
-0.049271
-0.017044
-0.025101
-0.033158
-0.025101
-0.017044
-0.000931
-0.025101
-0.033158
-0.025101
-0.008988
-0.008988
-0.008988
-0.000931
-0.000931
-0.008988
0.007126
0.015182
0.007126
0.015182
0.015182
0.015182
-0.000931
0.015182
0.039352
0.039352
0.039352
