2.444897
2.549633
1.284741
0.624096
0.285717
0.172924
0.060131
0.011792
0.035961
0.003735
-0.012378
-0.020435
0.011792
-0.004322
0.003735
0.003735
0.003735
0.011792
-0.012378
0.003735
0.019848
-0.004322
0.011792
0.003735
0.003735
-0.028492
-0.221851
-0.487720
-0.584400
-0.640796
-0.721363
-0.801929
-0.753589
-0.664966
-0.624683
-0.624683
-0.584400
-0.560230
-0.519947
-0.519947
-0.511890
-0.528003
-0.495777
-0.431324
-0.294361
-0.133228
-0.068775
-0.044605
-0.076831
-0.092945
-0.141285
-0.109058
-0.149341
-0.189624
-0.181568
-0.181568
-0.173511
-0.149341
-0.181568
-0.205738
-0.254078
-0.254078
-0.237964
-0.302417
-0.294361
-0.350757
-0.318531
-0.326587
-0.350757
-0.326587
-0.302417
-0.318531
-0.350757
-0.350757
-0.350757
-0.326587
-0.294361
-0.310474
-0.254078
-0.270191
-0.254078
-0.229908
-0.213794
-0.205738
-0.205738
-0.189624
-0.157398
-0.157398
-0.117115
-0.133228
-0.141285
-0.084888
-0.028492
0.237377
0.462963
0.624096
0.632153
0.624096
0.583813
0.535473
0.551586
0.535473
0.479077
0.462963
0.446850
0.487133
0.430737
0.390454
0.342114
0.293774
0.261547
0.253491
0.213208
0.197094
0.156811
0.124585
0.124585
0.084301
0.076245
0.027905
0.003735
-0.036548
-0.004322
-0.036548
-0.020435
-0.028492
-0.004322
0.003735
-0.004322
-0.044605
-0.012378
-0.052662
-0.020435
-0.044605
-0.036548
-0.020435
-0.004322
0.003735
0.027905
0.035961
-0.012378
0.003735
-0.028492
-0.012378
-0.012378
0.011792
-0.012378
0.003735
-0.004322
-0.004322
0.027905
-0.004322
0.003735
0.019848
0.003735
0.019848
-0.012378
-0.004322
-0.092945
-0.358814
-0.519947
-0.536060
-0.519947
-0.528003
-0.536060
-0.487720
-0.495777
-0.447437
-0.463550
-0.431324
-0.423267
-0.366871
-0.310474
-0.229908
-0.221851
-0.157398
-0.133228
-0.117115
-0.117115
-0.084888
-0.060718
-0.028492
0.011792
-0.028492
0.019848
0.019848
0.003735
-0.028492
-0.004322
-0.028492
-0.004322
-0.028492
-0.012378
-0.004322
-0.020435
-0.044605
-0.068775
-0.052662
-0.036548
-0.092945
-0.044605
-0.052662
0.116528
0.156811
0.140698
0.132641
0.092358
0.100415
0.044018
-0.020435
-0.020435
-0.036548
-0.020435
-0.068775
-0.068775
-0.044605
-0.068775
-0.052662
-0.076831
-0.060718
-0.052662
-0.052662
-0.068775
-0.052662
-0.012378
0.180981
0.277661
0.358227
0.454907
0.446850
0.406567
0.414624
0.374340
0.398510
0.350170
0.309887
0.213208
0.189038
0.148754
0.124585
0.108471
0.084301
0.084301
0.076245
0.027905
0.027905
0.027905
-0.004322
0.011792
-0.004322
0.003735
-0.012378
-0.020435
-0.020435
-0.036548
-0.028492
-0.012378
-0.028492
-0.028492
0.019848
-0.028492
-0.036548
0.011792
0.019848
0.044018
-0.044605
0.019848
-0.012378
-0.028492
-0.020435
-0.028492
0.011792
-0.004322
-0.004322
0.035961
-0.004322
-0.004322
-0.020435
0.003735
-0.004322
0.035961
-0.004322
-0.012378
0.003735
-0.004322
0.003735
0.011792
0.011792
0.003735
-0.141285
-0.302417
-0.374927
-0.431324
-0.439380
-0.447437
-0.407154
-0.391040
-0.391040
-0.399097
-0.350757
-0.246021
-0.205738
-0.173511
-0.157398
-0.092945
-0.125171
-0.068775
-0.068775
-0.028492
-0.028492
-0.036548
0.027905
0.035961
0.003735
-0.012378
-0.020435
0.027905
0.003735
-0.020435
0.011792
-0.012378
0.019848
-0.012378
-0.020435
-0.012378
-0.012378
0.003735
-0.052662
-0.052662
-0.012378
-0.044605
-0.028492
-0.052662
-0.028492
-0.060718
-0.028492
-0.060718
-0.044605
-0.068775
-0.044605
-0.036548
-0.076831
-0.020435
-0.060718
-0.052662
-0.060718
-0.060718
-0.044605
-0.060718
-0.060718
-0.036548
-0.060718
-0.036548
0.060131
0.261547
0.462963
0.632153
0.688549
0.656323
0.575756
0.535473
0.527417
0.430737
0.398510
0.277661
0.245434
0.172924
0.156811
0.172924
0.084301
0.076245
0.052075
0.011792
0.019848
-0.020435
0.011792
-0.044605
-0.020435
0.011792
-0.012378
-0.028492
-0.020435
0.003735
-0.020435
-0.004322
0.003735
-0.052662
0.003735
0.019848
-0.012378
-0.012378
-0.020435
0.011792
0.003735
-0.004322
0.027905
0.019848
0.011792
-0.012378
0.011792
-0.020435
0.003735
-0.012378
0.003735
-0.012378
-0.028492
-0.004322
-0.004322
0.003735
-0.012378
0.027905
0.019848
0.068188
0.035961
-0.004322
0.011792
0.003735
-0.052662
-0.197681
-0.358814
-0.391040
-0.415210
-0.431324
-0.399097
-0.382984
-0.407154
-0.358814
-0.302417
-0.254078
-0.165455
-0.165455
-0.149341
-0.109058
-0.109058
-0.052662
-0.068775
-0.052662
-0.004322
-0.004322
-0.004322
0.011792
0.011792
0.011792
0.003735
-0.004322
0.019848
0.019848
-0.004322
0.003735
-0.020435
-0.036548
0.003735
-0.020435
-0.004322
-0.028492
0.011792
-0.012378
-0.020435
0.003735
-0.052662
-0.028492
-0.012378
-0.028492
-0.036548
-0.060718
-0.012378
-0.028492
-0.036548
-0.004322
-0.020435
-0.052662
-0.028492
-0.044605
-0.044605
-0.020435
-0.020435
-0.044605
-0.044605
-0.036548
-0.020435
-0.028492
0.027905
0.189038
0.326001
0.422680
0.414624
0.390454
0.366284
0.374340
0.358227
0.350170
0.293774
0.213208
0.180981
0.172924
0.164868
0.108471
0.068188
0.068188
0.068188
0.044018
0.003735
-0.012378
0.003735
-0.036548
-0.020435
-0.028492
-0.028492
-0.052662
-0.028492
0.019848
0.084301
0.205151
0.197094
0.221264
0.221264
0.180981
0.148754
0.140698
0.068188
0.035961
0.044018
0.011792
0.019848
-0.012378
0.011792
0.003735
0.003735
-0.004322
-0.020435
0.003735
-0.004322
-0.004322
0.011792
-0.004322
0.019848
0.011792
0.011792
-0.020435
-0.012378
0.027905
0.035961
0.027905
0.019848
-0.020435
-0.020435
-0.189624
-0.318531
-0.374927
-0.447437
-0.431324
-0.439380
-0.374927
-0.399097
-0.374927
-0.334644
-0.237964
-0.189624
-0.165455
-0.117115
-0.076831
-0.084888
-0.052662
-0.068775
-0.012378
-0.020435
-0.028492
-0.020435
-0.012378
0.019848
0.035961
0.027905
0.035961
0.019848
0.011792
-0.020435
0.011792
-0.020435
-0.004322
-0.004322
-0.012378
-0.004322
-0.020435
-0.028492
-0.028492
-0.020435
-0.028492
-0.020435
-0.012378
-0.036548
-0.044605
-0.052662
-0.012378
-0.052662
-0.020435
-0.012378
0.003735
-0.028492
-0.028492
-0.060718
-0.036548
-0.012378
0.019848
-0.012378
-0.068775
-0.036548
-0.052662
-0.036548
-0.012378
0.003735
0.172924
0.326001
0.398510
0.414624
0.422680
0.366284
0.382397
0.374340
0.358227
0.326001
0.301831
0.213208
0.197094
0.148754
0.100415
0.084301
0.052075
0.035961
0.019848
0.003735
0.003735
-0.036548
-0.012378
-0.012378
-0.028492
-0.012378
-0.020435
-0.020435
-0.028492
0.011792
-0.028492
-0.012378
-0.012378
-0.012378
-0.012378
0.003735
-0.020435
0.011792
-0.020435
0.019848
-0.004322
0.003735
-0.020435
-0.004322
-0.020435
-0.004322
-0.012378
-0.052662
-0.004322
-0.012378
0.011792
0.003735
0.092358
0.213208
0.229321
0.221264
0.189038
0.164868
0.132641
0.068188
0.068188
0.052075
0.060131
0.011792
-0.189624
-0.318531
-0.391040
-0.439380
-0.399097
-0.350757
-0.366871
-0.366871
-0.366871
-0.318531
-0.246021
-0.197681
-0.157398
-0.141285
-0.109058
-0.084888
-0.076831
-0.052662
-0.012378
-0.012378
-0.020435
-0.004322
0.011792
0.003735
0.003735
0.003735
0.019848
0.003735
0.027905
-0.004322
0.003735
0.027905
-0.004322
0.044018
-0.028492
-0.004322
-0.004322
0.003735
-0.020435
-0.020435
-0.036548
-0.028492
-0.036548
-0.036548
0.011792
-0.044605
-0.036548
-0.012378
-0.012378
-0.012378
-0.028492
-0.036548
-0.020435
-0.052662
-0.052662
-0.036548
-0.028492
-0.036548
-0.028492
-0.028492
-0.020435
-0.020435
-0.004322
0.011792
0.156811
0.309887
0.390454
0.374340
0.414624
0.414624
0.390454
0.382397
0.358227
0.309887
0.229321
0.197094
0.140698
0.156811
0.148754
0.100415
0.076245
0.076245
0.052075
0.019848
-0.028492
-0.004322
-0.020435
0.019848
-0.020435
0.011792
0.003735
-0.020435
-0.012378
-0.012378
-0.020435
0.003735
0.003735
-0.036548
0.052075
-0.044605
-0.004322
0.011792
-0.020435
0.019848
0.003735
-0.004322
0.003735
0.011792
0.019848
-0.012378
-0.020435
-0.012378
0.011792
0.011792
0.011792
0.019848
-0.004322
0.003735
-0.004322
0.011792
-0.036548
0.027905
-0.012378
0.011792
0.011792
-0.012378
0.011792
-0.044605
-0.189624
-0.342701
-0.415210
-0.431324
-0.431324
-0.366871
-0.423267
-0.399097
-0.382984
-0.334644
-0.254078
-0.189624
-0.181568
-0.109058
-0.109058
-0.084888
-0.060718
-0.036548
0.116528
0.197094
0.205151
0.205151
0.229321
0.221264
0.164868
0.100415
0.068188
0.076245
0.011792
0.027905
0.044018
0.019848
0.003735
0.003735
0.003735
-0.020435
-0.004322
-0.012378
-0.004322
0.011792
0.003735
-0.012378
-0.012378
-0.036548
-0.044605
-0.028492
-0.004322
-0.028492
-0.028492
-0.028492
-0.036548
-0.012378
-0.036548
-0.020435
-0.020435
-0.036548
-0.044605
-0.028492
-0.020435
-0.028492
-0.028492
-0.028492
-0.012378
0.019848
0.148754
0.326001
0.374340
0.382397
0.398510
0.382397
0.334057
0.398510
0.334057
0.293774
0.229321
0.197094
0.156811
0.116528
0.124585
0.100415
0.060131
0.060131
0.019848
0.003735
-0.012378
-0.028492
0.011792
-0.028492
-0.020435
-0.028492
-0.036548
-0.004322
-0.036548
-0.020435
-0.020435
-0.020435
-0.004322
0.003735
-0.004322
0.019848
-0.036548
-0.052662
-0.012378
-0.004322
-0.012378
0.019848
-0.012378
0.011792
0.003735
0.011792
-0.004322
0.003735
-0.012378
-0.004322
0.011792
0.011792
0.019848
-0.020435
0.011792
0.019848
0.019848
0.011792
0.019848
0.035961
0.068188
0.003735
0.003735
-0.020435
-0.189624
-0.334644
-0.374927
-0.350757
-0.366871
-0.407154
-0.382984
-0.342701
-0.342701
-0.310474
-0.237964
-0.197681
-0.173511
-0.117115
-0.092945
-0.109058
-0.076831
-0.036548
-0.036548
-0.012378
-0.028492
0.011792
0.027905
0.003735
0.019848
-0.012378
-0.004322
-0.004322
-0.004322
-0.004322
-0.020435
0.019848
0.003735
0.003735
0.003735
-0.020435
-0.004322
-0.036548
-0.012378
-0.028492
-0.052662
-0.028492
-0.036548
0.100415
0.180981
0.205151
0.213208
0.197094
0.156811
0.116528
0.044018
0.027905
0.019848
0.011792
-0.012378
-0.004322
-0.004322
-0.020435
-0.012378
-0.028492
-0.028492
-0.028492
-0.020435
0.003735
0.156811
0.317944
0.422680
0.390454
0.366284
0.390454
0.382397
0.358227
0.350170
0.261547
0.197094
0.164868
0.132641
0.100415
0.100415
0.052075
0.068188
0.044018
0.060131
-0.028492
0.035961
0.011792
-0.004322
-0.028492
-0.028492
0.027905
-0.028492
0.003735
-0.012378
-0.004322
-0.004322
0.011792
-0.004322
0.035961
0.003735
0.011792
0.003735
-0.044605
-0.020435
0.003735
-0.004322
0.027905
-0.012378
0.011792
0.019848
0.019848
0.003735
0.019848
-0.012378
0.003735
0.003735
0.011792
0.019848
0.035961
0.060131
0.011792
0.044018
0.027905
0.011792
0.060131
-0.004322
-0.020435
0.003735
-0.012378
-0.173511
-0.358814
-0.415210
-0.431324
-0.407154
-0.382984
-0.407154
-0.374927
-0.358814
-0.302417
-0.246021
-0.165455
-0.125171
-0.117115
-0.109058
-0.084888
-0.068775
-0.020435
-0.044605
-0.028492
-0.004322
0.003735
0.027905
0.019848
0.027905
0.052075
0.019848
0.003735
0.011792
-0.004322
0.019848
0.003735
-0.012378
-0.012378
-0.012378
0.003735
-0.004322
0.011792
-0.028492
-0.004322
-0.004322
-0.036548
-0.044605
-0.052662
-0.028492
-0.036548
-0.036548
-0.028492
-0.036548
-0.036548
-0.028492
-0.020435
-0.044605
-0.028492
-0.012378
-0.028492
-0.004322
-0.028492
-0.012378
-0.020435
-0.036548
-0.052662
-0.044605
0.003735
0.164868
0.293774
0.406567
0.366284
0.366284
0.366284
0.366284
0.462963
0.527417
0.503247
0.438794
0.366284
0.309887
0.213208
0.197094
0.180981
0.124585
0.108471
0.027905
0.027905
-0.012378
0.027905
-0.036548
-0.004322
-0.028492
-0.028492
-0.020435
-0.044605
-0.012378
-0.036548
-0.028492
-0.036548
0.011792
-0.052662
-0.012378
-0.036548
-0.028492
-0.012378
-0.012378
-0.012378
-0.004322
0.019848
-0.004322
-0.012378
-0.004322
0.011792
-0.012378
0.003735
-0.012378
0.011792
-0.004322
0.003735
0.003735
-0.012378
0.003735
-0.004322
0.011792
-0.004322
0.027905
0.019848
0.027905
0.035961
-0.004322
-0.036548
-0.165455
-0.318531
-0.391040
-0.439380
-0.399097
-0.374927
-0.423267
-0.374927
-0.358814
-0.262134
-0.246021
-0.205738
-0.157398
-0.101001
-0.084888
-0.084888
-0.020435
-0.052662
0.003735
0.027905
0.019848
0.019848
0.027905
0.003735
0.011792
0.035961
0.011792
-0.012378
-0.012378
-0.020435
0.003735
-0.004322
0.027905
-0.004322
0.019848
0.019848
-0.004322
0.019848
-0.012378
-0.004322
0.019848
-0.012378
-0.044605
-0.020435
-0.028492
-0.020435
-0.020435
-0.036548
-0.004322
-0.004322
-0.028492
-0.044605
-0.028492
-0.028492
-0.012378
-0.020435
0.003735
-0.028492
-0.044605
-0.020435
-0.020435
-0.004322
0.003735
0.011792
0.156811
0.334057
0.398510
0.414624
0.382397
0.374340
0.366284
0.398510
0.334057
0.301831
0.221264
0.205151
0.124585
0.124585
0.100415
0.076245
0.060131
0.035961
0.068188
0.011792
-0.028492
-0.020435
-0.044605
-0.012378
-0.004322
-0.036548
-0.028492
-0.060718
-0.028492
-0.012378
0.084301
0.172924
0.213208
0.189038
0.197094
0.148754
0.084301
0.044018
0.019848
0.027905
0.019848
0.044018
0.035961
-0.004322
-0.004322
0.027905
0.011792
0.027905
-0.028492
0.003735
0.011792
0.011792
-0.028492
-0.012378
0.003735
-0.004322
0.011792
0.011792
0.003735
-0.012378
0.003735
0.003735
0.035961
-0.012378
-0.213794
-0.334644
-0.374927
-0.415210
-0.334644
-0.358814
-0.415210
-0.399097
-0.350757
-0.302417
-0.197681
-0.173511
-0.157398
-0.109058
-0.109058
-0.109058
-0.117115
-0.068775
-0.020435
-0.044605
-0.004322
-0.012378
-0.012378
0.011792
-0.012378
-0.004322
0.019848
0.011792
0.003735
0.003735
0.019848
0.011792
-0.004322
0.003735
0.019848
0.003735
0.044018
-0.004322
0.003735
-0.004322
-0.004322
0.019848
0.011792
-0.036548
-0.036548
-0.028492
-0.052662
-0.012378
-0.044605
-0.028492
-0.044605
-0.036548
-0.020435
-0.036548
-0.020435
-0.028492
-0.028492
-0.020435
-0.004322
-0.028492
0.003735
-0.044605
-0.004322
0.019848
0.172924
0.366284
0.390454
0.414624
0.358227
0.398510
0.366284
0.366284
0.326001
0.277661
0.229321
0.180981
0.100415
0.100415
0.092358
0.108471
0.060131
0.052075
-0.004322
-0.020435
-0.012378
-0.028492
-0.020435
-0.020435
-0.028492
-0.028492
-0.012378
-0.028492
-0.044605
-0.036548
0.003735
-0.020435
0.019848
-0.044605
-0.004322
-0.044605
-0.004322
-0.044605
-0.028492
0.003735
-0.012378
0.011792
-0.020435
-0.020435
0.027905
0.035961
-0.012378
0.011792
0.027905
-0.020435
0.003735
-0.012378
-0.012378
0.003735
0.019848
0.011792
0.019848
0.027905
-0.020435
-0.004322
0.132641
0.205151
0.245434
0.180981
0.011792
-0.181568
-0.278248
-0.318531
-0.350757
-0.350757
-0.374927
-0.358814
-0.318531
-0.286304
-0.165455
-0.189624
-0.149341
-0.125171
-0.133228
-0.101001
-0.076831
-0.012378
-0.044605
-0.020435
0.003735
0.003735
0.003735
0.011792
-0.004322
0.003735
0.027905
0.019848
0.019848
0.011792
0.019848
0.003735
0.011792
-0.004322
0.011792
-0.004322
-0.004322
0.035961
-0.004322
-0.020435
-0.028492
-0.028492
0.003735
-0.020435
-0.028492
0.027905
0.019848
-0.044605
-0.012378
0.003735
-0.036548
-0.020435
-0.012378
-0.036548
-0.012378
-0.036548
-0.044605
-0.012378
-0.012378
-0.004322
-0.028492
-0.044605
-0.044605
0.011792
0.197094
0.309887
0.382397
0.398510
0.390454
0.374340
0.366284
0.366284
0.350170
0.293774
0.221264
0.140698
0.164868
0.100415
0.116528
0.132641
0.076245
0.060131
0.011792
0.019848
0.003735
0.003735
-0.028492
-0.020435
-0.020435
-0.028492
-0.028492
0.011792
0.003735
-0.004322
-0.012378
-0.028492
-0.020435
-0.012378
-0.020435
0.027905
-0.012378
-0.004322
0.011792
-0.004322
0.011792
-0.028492
0.019848
-0.004322
0.011792
0.035961
-0.012378
0.003735
0.019848
0.003735
0.003735
0.011792
0.027905
0.052075
0.011792
0.003735
-0.004322
0.011792
-0.012378
0.011792
-0.020435
-0.020435
0.027905
-0.020435
-0.189624
-0.310474
-0.423267
-0.431324
-0.415210
-0.374927
-0.374927
-0.399097
-0.374927
-0.286304
-0.262134
-0.189624
-0.157398
-0.141285
-0.125171
-0.109058
-0.109058
-0.092945
-0.060718
-0.004322
-0.004322
0.092358
0.205151
0.229321
0.277661
0.213208
0.172924
0.116528
0.076245
0.076245
0.035961
0.044018
0.027905
0.011792
-0.020435
-0.012378
0.003735
-0.012378
-0.028492
-0.004322
0.003735
-0.044605
-0.036548
-0.012378
-0.012378
-0.004322
0.003735
-0.028492
-0.020435
-0.028492
-0.036548
-0.044605
-0.036548
-0.052662
-0.044605
-0.012378
-0.044605
-0.036548
-0.036548
-0.020435
-0.004322
-0.044605
0.027905
0.019848
0.164868
0.334057
0.406567
0.390454
0.382397
0.374340
0.366284
0.374340
0.366284
0.245434
0.237377
0.197094
0.148754
0.116528
0.084301
0.068188
0.052075
0.052075
0.003735
0.011792
-0.028492
-0.020435
-0.012378
0.003735
0.019848
-0.028492
-0.012378
-0.028492
-0.020435
-0.004322
-0.044605
-0.028492
-0.028492
0.011792
0.011792
-0.020435
-0.012378
-0.012378
-0.020435
-0.020435
0.019848
0.011792
-0.020435
0.027905
0.003735
0.011792
0.003735
0.003735
0.011792
0.003735
0.019848
0.003735
0.035961
0.003735
0.011792
0.035961
0.003735
0.027905
0.003735
0.011792
0.027905
0.019848
0.011792
-0.020435
-0.229908
-0.334644
-0.399097
-0.382984
-0.391040
-0.399097
-0.415210
-0.382984
-0.366871
-0.310474
-0.246021
-0.181568
-0.173511
-0.117115
-0.101001
-0.109058
-0.052662
-0.060718
-0.036548
-0.020435
0.003735
-0.020435
0.011792
0.011792
0.019848
0.019848
-0.004322
0.019848
0.003735
0.003735
-0.012378
-0.004322
0.019848
0.003735
-0.028492
-0.004322
-0.012378
-0.004322
0.011792
-0.028492
-0.052662
-0.044605
-0.020435
-0.044605
-0.060718
-0.020435
-0.060718
-0.004322
-0.036548
0.011792
0.140698
0.197094
0.172924
0.180981
0.148754
0.084301
0.052075
0.035961
0.052075
-0.004322
0.003735
-0.004322
0.003735
0.027905
0.180981
0.326001
0.406567
0.374340
0.382397
0.382397
0.366284
0.374340
0.317944
0.285717
0.205151
0.148754
0.140698
0.092358
0.092358
0.076245
0.044018
0.019848
0.011792
-0.036548
0.027905
-0.012378
-0.020435
0.019848
-0.020435
-0.012378
0.003735
-0.020435
-0.012378
-0.012378
-0.020435
-0.028492
-0.028492
-0.020435
-0.004322
-0.028492
-0.036548
-0.028492
-0.020435
-0.028492
-0.020435
0.019848
0.011792
0.003735
0.003735
-0.004322
-0.028492
0.019848
-0.012378
0.011792
-0.020435
0.003735
0.003735
-0.020435
0.011792
-0.004322
0.019848
-0.012378
0.019848
-0.004322
0.019848
-0.004322
0.035961
-0.028492
-0.189624
-0.374927
-0.399097
-0.439380
-0.407154
-0.366871
-0.382984
-0.358814
-0.342701
-0.278248
-0.213794
-0.173511
-0.141285
-0.117115
-0.125171
-0.092945
-0.052662
-0.036548
-0.012378
-0.052662
0.011792
0.011792
-0.012378
0.011792
-0.004322
0.011792
0.003735
0.003735
0.035961
-0.012378
0.003735
0.011792
-0.004322
0.027905
-0.020435
0.011792
0.011792
-0.028492
-0.036548
-0.036548
-0.036548
-0.004322
-0.012378
-0.012378
-0.004322
-0.044605
-0.020435
0.003735
-0.020435
-0.028492
-0.036548
-0.020435
-0.036548
-0.044605
-0.052662
-0.044605
-0.012378
-0.020435
-0.036548
-0.012378
-0.036548
-0.044605
-0.020435
0.011792
0.180981
0.293774
0.390454
0.414624
0.350170
0.342114
0.350170
0.334057
0.390454
0.479077
0.438794
0.390454
0.301831
0.245434
0.189038
0.156811
0.108471
0.076245
0.011792
0.003735
0.011792
-0.036548
-0.020435
-0.012378
-0.028492
-0.012378
-0.036548
-0.028492
-0.020435
-0.060718
-0.004322
-0.052662
-0.036548
-0.012378
-0.012378
-0.036548
-0.004322
0.003735
-0.004322
-0.004322
0.003735
-0.004322
-0.004322
-0.020435
0.003735
0.011792
-0.020435
0.003735
-0.020435
0.003735
0.011792
0.011792
0.027905
0.011792
-0.020435
0.019848
0.019848
0.003735
0.027905
-0.004322
0.011792
0.019848
0.035961
-0.036548
-0.254078
-0.374927
-0.431324
-0.415210
-0.391040
-0.391040
-0.382984
-0.407154
-0.342701
-0.262134
-0.254078
-0.197681
-0.125171
-0.125171
-0.101001
-0.117115
-0.076831
-0.052662
-0.020435
0.003735
-0.004322
-0.004322
-0.004322
0.019848
0.027905
0.011792
0.019848
0.035961
0.027905
-0.004322
0.035961
0.019848
0.011792
0.035961
0.003735
-0.004322
-0.004322
-0.004322
0.011792
0.003735
-0.012378
-0.020435
-0.012378
-0.028492
-0.020435
-0.020435
-0.004322
-0.004322
-0.028492
-0.028492
-0.052662
-0.004322
-0.020435
-0.020435
-0.004322
-0.036548
-0.052662
-0.020435
-0.004322
0.003735
-0.028492
-0.020435
0.011792
0.052075
0.205151
0.334057
0.398510
0.430737
0.374340
0.398510
0.382397
0.334057
0.326001
0.245434
0.197094
0.164868
0.156811
0.132641
0.116528
0.068188
0.068188
0.027905
-0.004322
0.003735
-0.004322
0.011792
-0.012378
-0.004322
-0.020435
-0.028492
-0.044605
-0.036548
-0.028492
-0.052662
-0.028492
-0.036548
-0.036548
-0.004322
-0.020435
-0.012378
-0.036548
-0.012378
0.084301
0.180981
0.245434
0.205151
0.205151
0.189038
0.189038
0.124585
0.076245
0.052075
0.052075
0.035961
0.027905
0.027905
0.019848
0.019848
-0.012378
0.011792
0.011792
0.019848
0.035961
0.044018
0.011792
0.019848
0.003735
-0.012378
-0.173511
-0.350757
-0.447437
-0.407154
-0.391040
-0.399097
-0.374927
-0.391040
-0.342701
-0.294361
-0.189624
-0.197681
-0.133228
-0.101001
-0.109058
-0.084888
-0.044605
-0.044605
-0.004322
-0.036548
0.052075
-0.004322
-0.012378
0.027905
0.011792
0.027905
0.027905
0.019848
-0.028492
0.003735
0.011792
-0.004322
0.019848
0.035961
0.003735
-0.020435
-0.004322
-0.028492
-0.012378
-0.004322
-0.028492
-0.036548
-0.028492
-0.004322
-0.004322
-0.020435
-0.012378
-0.020435
-0.028492
-0.012378
-0.036548
-0.004322
-0.020435
-0.020435
-0.012378
0.011792
-0.004322
-0.004322
-0.036548
-0.012378
-0.028492
0.003735
-0.028492
0.044018
0.180981
0.342114
0.398510
0.390454
0.382397
0.382397
0.430737
0.374340
0.342114
0.293774
0.205151
0.180981
0.132641
0.132641
0.124585
0.076245
0.068188
0.060131
0.035961
0.011792
-0.004322
-0.012378
-0.028492
-0.020435
-0.028492
-0.004322
-0.036548
-0.004322
-0.020435
-0.004322
-0.028492
0.003735
-0.012378
-0.020435
-0.012378
-0.004322
0.003735
0.011792
-0.028492
-0.020435
-0.004322
-0.004322
-0.020435
0.011792
0.003735
-0.012378
0.011792
0.027905
0.003735
-0.004322
0.019848
0.019848
0.011792
-0.012378
-0.028492
-0.012378
-0.004322
-0.012378
0.003735
-0.012378
-0.004322
-0.004322
0.011792
0.011792
-0.036548
-0.165455
-0.197681
-0.246021
-0.221851
-0.197681
-0.237964
-0.350757
-0.294361
-0.270191
-0.237964
-0.173511
-0.165455
-0.101001
-0.109058
-0.076831
-0.084888
-0.060718
0.003735
-0.012378
0.011792
-0.004322
0.019848
0.011792
0.019848
0.003735
0.019848
0.027905
-0.012378
0.035961
-0.028492
0.011792
0.027905
0.019848
-0.012378
-0.012378
-0.004322
0.003735
0.019848
-0.012378
-0.036548
-0.028492
0.003735
0.052075
0.011792
-0.020435
-0.012378
-0.028492
-0.012378
-0.028492
-0.028492
0.003735
-0.028492
-0.036548
-0.044605
-0.004322
0.027905
-0.028492
-0.020435
0.003735
-0.028492
-0.036548
-0.044605
0.060131
0.205151
0.390454
0.366284
0.438794
0.382397
0.366284
0.374340
0.366284
0.374340
0.269604
0.213208
0.156811
0.124585
0.100415
0.060131
0.060131
0.052075
0.052075
0.035961
0.035961
-0.012378
-0.012378
-0.036548
-0.012378
-0.028492
-0.012378
-0.044605
-0.004322
0.003735
-0.004322
-0.020435
0.011792
-0.020435
-0.012378
-0.004322
-0.004322
-0.004322
-0.004322
0.003735
0.003735
-0.004322
0.011792
0.019848
0.027905
0.027905
0.011792
-0.004322
0.019848
0.019848
0.044018
-0.012378
-0.004322
0.019848
0.019848
0.011792
0.003735
0.019848
0.027905
0.035961
0.003735
0.011792
0.035961
0.003735
-0.068775
-0.221851
-0.334644
-0.431324
-0.391040
-0.423267
-0.358814
-0.374927
-0.391040
-0.366871
-0.254078
-0.189624
-0.173511
-0.133228
-0.149341
-0.076831
-0.060718
-0.068775
-0.052662
-0.012378
-0.012378
-0.028492
-0.004322
0.027905
-0.036548
0.003735
0.003735
0.011792
0.052075
0.172924
0.245434
0.221264
0.205151
0.189038
0.148754
0.076245
0.068188
0.019848
0.019848
0.035961
-0.028492
-0.020435
-0.036548
-0.012378
0.003735
-0.044605
-0.012378
-0.044605
-0.012378
-0.036548
-0.036548
-0.028492
-0.020435
-0.044605
-0.028492
-0.044605
0.003735
-0.036548
-0.044605
-0.012378
-0.020435
-0.036548
-0.052662
-0.036548
0.027905
0.189038
0.350170
0.390454
0.406567
0.374340
0.350170
0.366284
0.350170
0.342114
0.269604
0.245434
0.180981
0.124585
0.100415
0.076245
0.100415
0.027905
0.052075
0.044018
-0.004322
0.027905
-0.012378
-0.012378
-0.012378
-0.036548
-0.028492
-0.028492
0.003735
-0.044605
0.003735
-0.028492
0.011792
-0.036548
-0.020435
-0.020435
-0.044605
-0.012378
-0.020435
-0.012378
0.027905
0.003735
0.019848
0.019848
-0.020435
-0.012378
-0.012378
0.011792
0.019848
0.003735
-0.012378
0.011792
0.003735
0.044018
-0.012378
0.003735
-0.012378
-0.020435
0.003735
0.003735
0.027905
0.035961
-0.012378
0.003735
-0.068775
-0.229908
-0.366871
-0.407154
-0.423267
-0.399097
-0.391040
-0.415210
-0.374927
-0.326587
-0.294361
-0.205738
-0.149341
-0.141285
-0.125171
-0.109058
-0.092945
-0.084888
-0.044605
-0.044605
-0.020435
-0.020435
0.011792
0.003735
-0.020435
0.011792
-0.020435
-0.004322
-0.036548
-0.012378
-0.020435
-0.004322
0.044018
0.027905
-0.036548
-0.028492
-0.020435
-0.012378
-0.020435
0.003735
-0.028492
-0.028492
0.003735
0.003735
-0.020435
-0.044605
-0.052662
-0.036548
-0.004322
-0.060718
-0.052662
-0.012378
0.140698
0.189038
0.205151
0.189038
0.116528
0.084301
0.027905
0.011792
0.003735
-0.020435
-0.028492
-0.020435
0.027905
0.221264
0.342114
0.398510
0.398510
0.390454
0.382397
0.350170
0.334057
0.350170
0.293774
0.213208
0.180981
0.108471
0.108471
0.100415
0.076245
0.044018
0.044018
0.019848
0.035961
0.019848
-0.036548
-0.004322
-0.004322
-0.068775
-0.028492
-0.028492
-0.012378
-0.020435
-0.020435
-0.012378
-0.028492
-0.012378
-0.020435
0.003735
-0.004322
-0.004322
0.011792
0.011792
-0.004322
-0.012378
-0.044605
-0.012378
-0.004322
0.003735
0.003735
0.019848
-0.020435
0.003735
-0.012378
0.019848
0.019848
0.003735
-0.004322
0.019848
0.003735
0.035961
0.019848
0.035961
0.027905
0.011792
0.019848
-0.004322
-0.036548
-0.229908
-0.334644
-0.391040
-0.366871
-0.382984
-0.391040
-0.358814
-0.382984
-0.358814
-0.278248
-0.197681
-0.141285
-0.149341
-0.133228
-0.101001
-0.076831
-0.036548
-0.036548
-0.052662
-0.004322
0.011792
0.035961
0.052075
0.011792
0.019848
0.011792
0.019848
0.003735
0.011792
0.011792
0.003735
0.011792
-0.004322
0.003735
0.003735
0.011792
0.003735
0.011792
-0.020435
-0.012378
-0.004322
0.003735
-0.020435
0.003735
-0.004322
-0.004322
-0.012378
-0.020435
-0.020435
-0.012378
0.003735
0.011792
0.003735
-0.020435
-0.012378
-0.028492
-0.028492
-0.012378
-0.020435
0.011792
-0.036548
-0.020435
-0.044605
0.052075
0.221264
0.342114
0.398510
0.406567
0.366284
0.390454
0.374340
0.374340
0.366284
0.261547
0.221264
0.156811
0.124585
0.084301
0.084301
0.052075
0.092358
0.180981
0.197094
0.132641
0.100415
0.076245
0.060131
0.052075
0.019848
0.035961
0.035961
0.003735
0.003735
0.019848
0.003735
0.011792
0.003735
0.003735
-0.012378
-0.004322
0.019848
-0.004322
0.019848
-0.012378
0.003735
0.003735
0.019848
0.011792
0.003735
-0.012378
-0.004322
0.003735
0.027905
-0.012378
0.003735
-0.004322
0.011792
0.011792
0.019848
0.003735
0.011792
0.003735
0.011792
0.003735
0.011792
0.027905
-0.020435
-0.076831
-0.213794
-0.350757
-0.399097
-0.407154
-0.391040
-0.391040
-0.391040
-0.374927
-0.318531
-0.278248
-0.229908
-0.157398
-0.165455
-0.125171
-0.117115
-0.060718
-0.092945
-0.020435
-0.036548
-0.044605
0.003735
0.011792
0.003735
0.011792
0.011792
0.011792
-0.004322
-0.012378
0.035961
-0.020435
0.044018
0.027905
-0.004322
-0.020435
-0.012378
-0.004322
0.019848
-0.004322
0.044018
0.011792
-0.012378
-0.020435
-0.012378
-0.012378
-0.012378
-0.020435
-0.004322
0.003735
-0.028492
-0.028492
-0.020435
0.011792
0.003735
-0.004322
-0.012378
-0.020435
-0.012378
-0.028492
-0.004322
-0.028492
-0.020435
-0.036548
0.003735
0.044018
0.205151
0.366284
0.422680
0.382397
0.382397
0.374340
0.366284
0.366284
0.342114
0.285717
0.213208
0.180981
0.172924
0.132641
0.100415
0.076245
0.060131
0.044018
0.003735
-0.012378
0.003735
-0.028492
-0.036548
-0.036548
-0.004322
-0.012378
-0.020435
-0.028492
-0.044605
-0.028492
0.003735
-0.004322
-0.012378
-0.028492
-0.004322
-0.004322
0.011792
0.019848
-0.052662
0.011792
0.019848
0.035961
0.172924
0.197094
0.197094
0.156811
0.108471
0.100415
0.092358
0.076245
0.068188
0.027905
0.035961
0.003735
0.003735
0.003735
-0.004322
0.003735
0.035961
0.019848
0.019848
0.011792
0.003735
-0.060718
-0.229908
-0.366871
-0.415210
-0.399097
-0.399097
-0.415210
-0.374927
-0.391040
-0.342701
-0.278248
-0.221851
-0.189624
-0.149341
-0.109058
-0.117115
-0.084888
-0.052662
-0.052662
-0.028492
-0.020435
0.003735
-0.012378
-0.020435
0.027905
0.003735
0.019848
0.019848
-0.012378
0.027905
0.019848
0.003735
0.035961
0.011792
0.003735
-0.004322
-0.004322
0.019848
0.003735
-0.012378
-0.004322
0.019848
0.035961
-0.020435
-0.012378
-0.028492
-0.012378
-0.004322
-0.060718
-0.012378
-0.020435
-0.020435
-0.020435
-0.012378
-0.004322
-0.036548
0.003735
-0.004322
-0.012378
-0.012378
0.011792
-0.020435
-0.012378
-0.028492
0.068188
0.229321
0.358227
0.414624
0.390454
0.390454
0.366284
0.374340
0.358227
0.366284
0.269604
0.213208
0.180981
0.132641
0.100415
0.060131
0.052075
0.052075
0.027905
0.011792
0.044018
-0.012378
-0.036548
0.003735
-0.028492
0.003735
-0.028492
-0.004322
-0.020435
-0.036548
-0.012378
