-2.025285
-2.226701
-1.243791
-0.599260
-0.293107
-0.140031
-0.083635
-0.035295
-0.051408
-0.059465
-0.019182
-0.011125
-0.003068
-0.011125
-0.019182
-0.019182
0.037215
0.004988
-0.035295
0.004988
-0.027238
-0.011125
-0.019182
-0.011125
-0.027238
-0.011125
-0.027238
-0.027238
-0.019182
0.150008
0.367537
0.528670
0.520613
0.544783
0.536727
0.512557
0.520613
0.496443
0.472273
0.464217
0.448104
0.407820
0.351424
0.343367
0.270857
0.254744
0.254744
0.198348
0.198348
0.198348
0.222518
0.174178
0.174178
0.141951
0.141951
0.125838
0.150008
0.158064
0.198348
0.198348
0.222518
0.254744
0.262801
0.278914
0.295027
0.295027
0.295027
0.303084
0.303084
0.335311
0.303084
0.319197
0.303084
0.351424
0.295027
0.278914
0.270857
0.230574
0.254744
0.230574
0.198348
0.222518
0.166121
0.166121
0.174178
0.174178
0.182234
0.117781
0.117781
0.093611
0.085555
0.029158
-0.180314
-0.446184
-0.631486
-0.615373
-0.647600
-0.575090
-0.526750
-0.510637
-0.494523
-0.470353
-0.510637
-0.494523
-0.486467
-0.462297
-0.422014
-0.357561
-0.317277
-0.252824
-0.204484
-0.196428
-0.148088
0.013045
0.141951
0.125838
0.141951
0.166121
0.133895
0.158064
0.133895
0.093611
0.045272
0.069441
0.021102
0.021102
0.029158
-0.003068
-0.003068
-0.019182
0.013045
-0.003068
-0.019182
-0.019182
-0.035295
0.004988
-0.019182
-0.003068
-0.003068
-0.027238
-0.027238
-0.019182
-0.043352
-0.027238
-0.011125
-0.003068
-0.019182
-0.011125
-0.019182
-0.019182
-0.035295
-0.019182
-0.019182
-0.019182
0.004988
-0.043352
-0.019182
0.013045
0.214461
0.423934
0.448104
0.512557
0.512557
0.488387
0.464217
0.440047
0.391707
0.423934
0.431990
0.407820
0.335311
0.303084
0.230574
0.230574
0.133895
0.093611
0.101668
0.085555
0.045272
0.053328
0.029158
0.029158
-0.011125
-0.035295
-0.019182
0.004988
-0.027238
-0.043352
-0.003068
-0.011125
0.013045
-0.011125
-0.011125
0.037215
0.013045
0.061385
0.021102
0.021102
0.053328
0.061385
0.045272
0.037215
0.053328
0.093611
0.093611
0.077498
0.061385
0.109725
0.061385
0.085555
0.077498
0.077498
0.101668
0.021102
0.053328
0.037215
0.013045
0.021102
0.053328
0.029158
0.069441
0.004988
0.029158
-0.019182
-0.172258
-0.309221
-0.381730
-0.454240
-0.422014
-0.381730
-0.446184
-0.405900
-0.405900
-0.373674
-0.309221
-0.212541
-0.228654
-0.164201
-0.099748
-0.123918
-0.099748
-0.107805
-0.075578
-0.051408
-0.011125
-0.011125
-0.035295
-0.019182
-0.011125
-0.011125
0.013045
0.037215
-0.003068
-0.027238
-0.011125
-0.011125
0.013045
-0.019182
-0.019182
-0.011125
0.013045
-0.019182
-0.011125
0.004988
-0.003068
-0.035295
-0.011125
-0.027238
-0.027238
-0.043352
0.061385
0.190291
0.214461
0.230574
0.238631
0.198348
0.174178
0.109725
0.077498
0.037215
0.004988
0.004988
0.021102
0.021102
-0.059465
-0.043352
-0.027238
-0.019182
0.004988
0.174178
0.286971
0.375594
0.343367
0.383650
0.359480
0.391707
0.359480
0.303084
0.295027
0.254744
0.190291
0.125838
0.117781
0.093611
0.077498
0.045272
0.037215
0.004988
-0.027238
-0.027238
-0.035295
-0.051408
-0.027238
-0.059465
-0.011125
-0.043352
-0.043352
-0.035295
-0.003068
-0.011125
0.013045
0.029158
-0.011125
0.013045
0.021102
-0.003068
0.037215
0.013045
0.021102
0.004988
0.037215
-0.003068
0.004988
0.029158
0.069441
0.093611
0.029158
0.029158
0.037215
0.013045
0.045272
0.004988
0.061385
0.029158
0.021102
0.037215
0.029158
0.029158
-0.003068
0.021102
0.021102
-0.003068
0.004988
-0.107805
-0.268937
-0.373674
-0.365617
-0.381730
-0.422014
-0.422014
-0.413957
-0.373674
-0.325334
-0.236711
-0.188371
-0.148088
-0.140031
-0.107805
-0.083635
-0.059465
-0.091691
-0.035295
-0.019182
-0.019182
0.021102
-0.003068
-0.003068
-0.011125
-0.003068
0.013045
-0.003068
-0.011125
-0.043352
-0.027238
-0.003068
-0.003068
0.004988
-0.003068
-0.027238
-0.011125
-0.003068
-0.011125
-0.019182
0.013045
0.004988
-0.019182
-0.043352
0.004988
0.004988
-0.011125
-0.011125
-0.019182
-0.035295
-0.035295
-0.043352
-0.059465
-0.027238
-0.027238
-0.043352
-0.019182
-0.011125
-0.059465
-0.051408
-0.027238
-0.043352
-0.035295
-0.019182
0.061385
0.214461
0.311141
0.335311
0.351424
0.351424
0.407820
0.512557
0.560897
0.496443
0.448104
0.375594
0.327254
0.295027
0.214461
0.198348
0.133895
0.069441
0.021102
0.029158
-0.003068
-0.027238
-0.027238
0.021102
0.013045
-0.059465
-0.035295
-0.067521
-0.051408
-0.043352
-0.035295
-0.035295
-0.003068
0.037215
-0.043352
-0.027238
-0.011125
-0.043352
0.013045
-0.003068
0.029158
0.037215
0.029158
0.037215
0.029158
0.045272
0.021102
0.037215
0.029158
0.037215
0.013045
0.004988
0.053328
0.037215
0.029158
0.029158
-0.003068
0.029158
0.004988
0.004988
-0.003068
0.037215
0.004988
-0.003068
-0.051408
-0.228654
-0.341447
-0.373674
-0.357561
-0.397844
-0.381730
-0.357561
-0.341447
-0.301164
-0.268937
-0.204484
-0.156145
-0.140031
-0.099748
-0.099748
-0.115861
-0.035295
-0.043352
-0.035295
0.004988
0.004988
-0.003068
-0.003068
-0.011125
-0.003068
0.029158
0.004988
0.021102
-0.019182
-0.027238
-0.019182
-0.035295
-0.011125
-0.019182
0.021102
-0.003068
0.013045
0.021102
-0.003068
-0.027238
-0.011125
-0.019182
-0.027238
-0.027238
-0.051408
-0.027238
-0.043352
-0.011125
-0.011125
-0.027238
-0.011125
-0.003068
0.004988
-0.011125
-0.011125
-0.027238
-0.011125
-0.019182
-0.027238
-0.035295
-0.043352
-0.003068
-0.051408
0.045272
0.230574
0.343367
0.335311
0.351424
0.367537
0.359480
0.351424
0.359480
0.278914
0.206404
0.150008
0.141951
0.101668
0.085555
0.085555
0.069441
0.037215
-0.003068
-0.035295
-0.043352
-0.011125
-0.051408
-0.035295
-0.059465
-0.027238
-0.035295
-0.019182
-0.067521
-0.019182
-0.027238
-0.043352
-0.035295
-0.043352
0.029158
0.141951
0.230574
0.262801
0.230574
0.230574
0.174178
0.158064
0.166121
0.141951
0.101668
0.093611
0.029158
0.053328
0.029158
0.037215
0.037215
0.029158
0.004988
0.013045
0.029158
0.021102
-0.027238
0.013045
-0.011125
-0.003068
0.013045
0.004988
-0.011125
0.013045
-0.059465
-0.244768
-0.317277
-0.341447
-0.357561
-0.397844
-0.405900
-0.389787
-0.341447
-0.268937
-0.236711
-0.172258
-0.140031
-0.156145
-0.115861
-0.115861
-0.083635
-0.059465
-0.027238
-0.011125
-0.035295
0.013045
-0.027238
0.004988
0.021102
0.037215
0.004988
0.037215
-0.003068
0.004988
-0.011125
-0.011125
-0.003068
-0.019182
-0.027238
0.004988
0.021102
0.013045
-0.027238
-0.003068
0.013045
-0.003068
0.004988
0.004988
-0.027238
-0.027238
-0.027238
-0.035295
-0.011125
-0.019182
-0.035295
-0.019182
-0.027238
-0.003068
-0.019182
-0.051408
-0.027238
-0.035295
-0.003068
-0.035295
-0.035295
-0.019182
-0.059465
-0.059465
0.085555
0.198348
0.295027
0.343367
0.343367
0.359480
0.359480
0.343367
0.319197
0.230574
0.206404
0.150008
0.109725
0.093611
0.117781
0.037215
0.077498
0.029158
0.004988
-0.051408
-0.027238
-0.027238
-0.011125
-0.019182
-0.035295
-0.011125
-0.011125
-0.011125
0.004988
-0.003068
0.013045
-0.011125
-0.011125
-0.027238
-0.035295
-0.003068
-0.003068
0.021102
0.004988
-0.019182
0.013045
-0.011125
-0.019182
-0.011125
0.004988
0.045272
0.004988
0.004988
-0.019182
0.004988
0.013045
-0.011125
-0.003068
-0.043352
-0.011125
-0.027238
0.004988
0.021102
0.182234
0.246688
0.254744
0.206404
0.190291
0.182234
0.061385
-0.131975
-0.260881
-0.309221
-0.381730
-0.357561
-0.365617
-0.341447
-0.276994
-0.285051
-0.228654
-0.148088
-0.156145
-0.115861
-0.123918
-0.107805
-0.051408
-0.035295
-0.035295
-0.011125
-0.011125
0.013045
-0.011125
0.004988
-0.003068
-0.011125
-0.027238
0.013045
0.004988
-0.011125
-0.003068
0.004988
-0.003068
-0.011125
-0.003068
-0.003068
-0.043352
-0.027238
-0.027238
-0.019182
-0.003068
-0.011125
-0.011125
-0.019182
-0.035295
-0.019182
-0.027238
-0.035295
-0.019182
-0.011125
-0.019182
-0.043352
-0.043352
-0.019182
-0.019182
0.004988
-0.051408
-0.035295
-0.059465
-0.035295
0.013045
-0.051408
0.004988
-0.035295
0.069441
0.246688
0.311141
0.383650
0.359480
0.367537
0.367537
0.367537
0.327254
0.246688
0.222518
0.158064
0.101668
0.093611
0.085555
0.045272
0.037215
0.029158
0.013045
-0.011125
-0.027238
-0.043352
-0.011125
-0.003068
-0.019182
-0.019182
-0.027238
-0.019182
-0.027238
-0.051408
-0.027238
-0.019182
0.004988
-0.043352
0.004988
-0.011125
-0.043352
0.021102
-0.027238
-0.027238
-0.019182
0.013045
0.004988
-0.003068
0.029158
-0.003068
0.037215
0.021102
0.013045
0.004988
0.013045
0.004988
0.029158
0.013045
0.013045
0.013045
0.021102
-0.003068
-0.003068
-0.019182
0.021102
0.037215
0.037215
-0.003068
-0.115861
-0.260881
-0.373674
-0.357561
-0.365617
-0.389787
-0.397844
-0.357561
-0.341447
-0.293107
-0.260881
-0.188371
-0.156145
-0.099748
-0.091691
-0.099748
-0.099748
-0.083635
-0.011125
-0.035295
-0.011125
-0.051408
-0.035295
0.061385
0.174178
0.222518
0.238631
0.246688
0.222518
0.214461
0.158064
0.133895
0.141951
0.077498
0.061385
0.004988
0.013045
-0.003068
0.004988
0.004988
-0.019182
-0.027238
-0.019182
-0.027238
-0.003068
-0.043352
0.004988
-0.043352
-0.035295
-0.019182
-0.043352
-0.027238
-0.059465
-0.043352
-0.043352
-0.051408
-0.027238
-0.059465
-0.051408
-0.051408
-0.011125
-0.003068
-0.043352
-0.019182
0.061385
0.230574
0.311141
0.327254
0.351424
0.359480
0.375594
0.335311
0.270857
0.254744
0.206404
0.174178
0.093611
0.109725
0.109725
0.053328
0.037215
0.004988
-0.003068
-0.011125
-0.035295
-0.019182
-0.043352
-0.011125
-0.059465
-0.027238
-0.003068
-0.019182
-0.019182
-0.051408
-0.027238
-0.035295
-0.035295
-0.019182
0.013045
-0.035295
-0.003068
-0.011125
-0.035295
0.013045
0.029158
-0.011125
0.004988
-0.003068
0.037215
-0.003068
0.004988
-0.011125
0.004988
0.013045
0.021102
0.013045
0.021102
-0.003068
0.037215
0.004988
0.013045
-0.003068
0.029158
0.013045
0.013045
0.004988
0.004988
-0.003068
-0.115861
-0.244768
-0.373674
-0.365617
-0.405900
-0.405900
-0.397844
-0.349504
-0.349504
-0.293107
-0.228654
-0.196428
-0.123918
-0.123918
-0.067521
-0.075578
-0.059465
-0.035295
-0.027238
-0.027238
-0.011125
0.021102
0.021102
-0.027238
0.004988
-0.043352
0.013045
0.004988
0.037215
-0.011125
-0.003068
-0.011125
-0.035295
0.004988
0.037215
-0.011125
-0.003068
-0.027238
-0.019182
-0.035295
-0.019182
-0.027238
-0.059465
-0.059465
-0.035295
-0.035295
-0.043352
-0.043352
0.037215
0.117781
0.182234
0.222518
0.166121
0.190291
0.166121
0.166121
0.077498
0.037215
0.021102
0.013045
-0.011125
-0.035295
-0.019182
-0.011125
0.093611
0.254744
0.303084
0.335311
0.343367
0.327254
0.327254
0.343367
0.295027
0.230574
0.190291
0.141951
0.101668
0.085555
0.077498
0.061385
0.045272
0.029158
0.013045
-0.035295
-0.035295
-0.043352
-0.043352
-0.027238
-0.003068
-0.043352
-0.019182
-0.035295
-0.011125
-0.011125
-0.035295
-0.035295
-0.019182
-0.003068
0.021102
-0.019182
-0.027238
-0.035295
0.004988
0.004988
-0.011125
-0.003068
-0.027238
0.013045
0.021102
0.021102
0.021102
0.004988
-0.011125
-0.011125
-0.003068
-0.011125
0.004988
-0.027238
0.004988
-0.035295
-0.019182
0.004988
0.013045
0.004988
0.004988
0.021102
0.029158
-0.011125
-0.123918
-0.244768
-0.365617
-0.365617
-0.413957
-0.365617
-0.365617
-0.357561
-0.341447
-0.276994
-0.204484
-0.148088
-0.172258
-0.107805
-0.131975
-0.083635
-0.083635
-0.019182
-0.035295
0.004988
-0.003068
-0.027238
-0.003068
0.004988
-0.011125
-0.019182
0.004988
0.013045
0.004988
-0.011125
-0.011125
-0.027238
-0.027238
-0.019182
-0.019182
-0.003068
-0.011125
-0.003068
0.021102
-0.011125
-0.035295
-0.035295
-0.027238
-0.003068
-0.035295
-0.011125
0.004988
-0.035295
-0.027238
-0.051408
-0.043352
-0.019182
-0.051408
-0.011125
-0.019182
-0.019182
-0.035295
-0.011125
-0.027238
-0.043352
-0.027238
-0.059465
-0.035295
-0.011125
0.133895
0.262801
0.295027
0.319197
0.359480
0.375594
0.335311
0.335311
0.311141
0.238631
0.150008
0.109725
0.101668
0.214461
0.254744
0.286971
0.286971
0.254744
0.190291
0.150008
0.133895
0.133895
0.125838
0.061385
0.037215
0.037215
-0.019182
-0.035295
-0.043352
-0.019182
-0.019182
-0.003068
-0.003068
-0.003068
-0.011125
-0.011125
0.013045
0.004988
-0.003068
-0.011125
-0.019182
-0.019182
-0.003068
-0.011125
0.004988
0.004988
0.004988
-0.003068
-0.019182
0.013045
0.037215
0.021102
-0.035295
-0.003068
0.037215
0.021102
0.004988
0.004988
-0.027238
0.021102
0.021102
-0.003068
0.021102
-0.011125
-0.115861
-0.252824
-0.357561
-0.357561
-0.357561
-0.422014
-0.357561
-0.365617
-0.309221
-0.268937
-0.220598
-0.180314
-0.164201
-0.115861
-0.059465
-0.083635
-0.067521
-0.035295
-0.035295
-0.003068
-0.019182
0.004988
-0.019182
0.037215
0.037215
0.045272
0.021102
0.021102
-0.019182
-0.011125
-0.019182
-0.011125
0.021102
0.004988
-0.003068
0.021102
0.004988
0.013045
0.004988
-0.019182
-0.003068
0.021102
-0.027238
-0.059465
-0.043352
-0.019182
-0.027238
-0.027238
-0.027238
0.013045
-0.011125
-0.011125
-0.019182
-0.051408
-0.019182
0.004988
-0.003068
-0.027238
-0.011125
-0.035295
-0.027238
-0.019182
-0.035295
0.004988
0.158064
0.246688
0.335311
0.351424
0.367537
0.375594
0.351424
0.359480
0.286971
0.238631
0.182234
0.182234
0.125838
0.069441
0.053328
0.053328
0.045272
-0.003068
-0.003068
-0.011125
-0.011125
-0.027238
-0.043352
-0.035295
-0.027238
-0.027238
-0.027238
-0.027238
-0.019182
-0.035295
-0.035295
-0.059465
-0.011125
-0.003068
-0.019182
0.021102
0.133895
0.238631
0.246688
0.222518
0.246688
0.214461
0.174178
0.125838
0.053328
0.061385
0.029158
0.013045
-0.011125
0.004988
0.004988
0.004988
0.029158
-0.027238
-0.011125
-0.019182
0.004988
-0.011125
-0.011125
0.029158
-0.003068
0.021102
0.013045
-0.003068
-0.164201
-0.293107
-0.365617
-0.389787
-0.389787
-0.357561
-0.373674
-0.341447
-0.357561
-0.268937
-0.220598
-0.180314
-0.140031
-0.131975
-0.115861
-0.075578
-0.027238
-0.035295
-0.011125
-0.011125
-0.019182
0.004988
-0.027238
0.021102
-0.003068
-0.003068
-0.019182
-0.011125
0.013045
-0.019182
-0.003068
-0.019182
-0.027238
-0.027238
-0.003068
-0.035295
-0.019182
-0.019182
-0.027238
-0.035295
-0.003068
-0.019182
-0.035295
-0.059465
-0.035295
-0.003068
-0.043352
-0.027238
-0.027238
-0.019182
-0.027238
-0.035295
-0.003068
-0.043352
-0.011125
-0.043352
-0.011125
-0.003068
-0.019182
-0.027238
-0.003068
-0.003068
-0.027238
0.004988
0.133895
0.286971
0.311141
0.343367
0.367537
0.343367
0.367537
0.343367
0.295027
0.246688
0.182234
0.158064
0.117781
0.077498
0.037215
0.045272
0.029158
0.021102
-0.011125
-0.011125
-0.003068
-0.019182
-0.035295
-0.019182
-0.019182
-0.043352
-0.019182
-0.035295
-0.011125
-0.035295
-0.027238
-0.019182
-0.003068
-0.003068
0.004988
0.013045
-0.027238
0.013045
-0.019182
-0.019182
0.004988
-0.043352
-0.011125
0.013045
0.021102
-0.019182
0.013045
-0.003068
0.004988
0.004988
0.037215
0.004988
-0.011125
0.013045
0.013045
0.029158
-0.003068
-0.011125
0.004988
-0.027238
-0.011125
-0.019182
-0.027238
-0.059465
-0.172258
-0.276994
-0.212541
-0.156145
-0.164201
-0.156145
-0.180314
-0.172258
-0.180314
-0.172258
-0.148088
-0.123918
-0.140031
-0.099748
-0.083635
-0.075578
-0.019182
-0.027238
-0.019182
-0.011125
-0.019182
-0.011125
-0.035295
0.013045
-0.027238
-0.019182
-0.011125
0.004988
-0.019182
-0.019182
-0.027238
-0.019182
-0.019182
0.013045
-0.003068
-0.019182
-0.019182
-0.035295
-0.051408
-0.011125
-0.027238
-0.027238
-0.019182
-0.035295
-0.035295
-0.043352
-0.035295
-0.035295
-0.011125
-0.019182
-0.027238
0.013045
-0.043352
-0.011125
-0.003068
-0.035295
-0.011125
-0.019182
-0.051408
-0.059465
-0.035295
-0.027238
-0.059465
0.004988
0.141951
0.238631
0.327254
0.351424
0.359480
0.359480
0.311141
0.319197
0.319197
0.222518
0.166121
0.101668
0.093611
0.045272
0.053328
0.045272
0.004988
-0.011125
0.004988
-0.043352
-0.027238
-0.067521
-0.051408
-0.059465
-0.027238
-0.059465
-0.051408
-0.035295
-0.035295
-0.051408
-0.035295
-0.035295
-0.051408
-0.019182
-0.051408
-0.003068
-0.003068
0.013045
-0.003068
0.029158
-0.019182
-0.003068
-0.003068
-0.003068
0.004988
-0.027238
0.004988
-0.003068
-0.011125
-0.019182
-0.003068
0.013045
-0.003068
-0.019182
0.013045
-0.003068
0.021102
-0.027238
-0.011125
0.004988
0.004988
0.013045
0.029158
-0.019182
-0.172258
-0.301164
-0.357561
-0.349504
-0.373674
-0.389787
-0.422014
-0.357561
-0.341447
-0.260881
-0.212541
-0.156145
-0.115861
-0.075578
-0.035295
-0.075578
-0.051408
-0.043352
-0.035295
0.004988
-0.035295
-0.019182
-0.003068
-0.027238
0.004988
-0.019182
0.045272
0.141951
0.214461
0.214461
0.182234
0.150008
0.133895
0.069441
0.053328
0.045272
-0.011125
-0.003068
0.004988
-0.019182
-0.003068
0.004988
-0.027238
-0.035295
-0.051408
-0.075578
-0.035295
-0.019182
-0.059465
-0.067521
-0.051408
-0.051408
-0.035295
-0.027238
-0.043352
-0.051408
-0.035295
-0.051408
-0.035295
-0.059465
-0.027238
-0.035295
-0.035295
0.004988
0.125838
0.246688
0.286971
0.319197
0.375594
0.335311
0.343367
0.319197
0.295027
0.206404
0.166121
0.117781
0.133895
0.109725
0.061385
0.029158
0.021102
-0.003068
-0.027238
-0.027238
-0.059465
-0.051408
-0.035295
-0.003068
-0.019182
-0.019182
-0.035295
-0.059465
-0.035295
-0.019182
-0.011125
-0.027238
-0.035295
-0.019182
-0.035295
-0.011125
-0.043352
0.021102
-0.019182
-0.003068
-0.011125
0.004988
0.029158
0.045272
-0.003068
0.013045
0.021102
-0.003068
-0.003068
-0.003068
-0.011125
-0.019182
0.004988
0.013045
0.021102
0.004988
0.037215
0.037215
-0.011125
0.021102
0.021102
0.021102
0.004988
-0.043352
-0.204484
-0.309221
-0.365617
-0.317277
-0.389787
-0.381730
-0.389787
-0.325334
-0.301164
-0.285051
-0.212541
-0.156145
-0.140031
-0.115861
-0.075578
-0.059465
-0.059465
-0.043352
-0.011125
-0.019182
-0.011125
-0.027238
0.004988
0.021102
0.013045
0.004988
-0.011125
-0.019182
-0.003068
-0.027238
-0.035295
0.004988
0.004988
-0.019182
-0.003068
-0.019182
-0.011125
-0.019182
-0.003068
-0.011125
-0.035295
-0.003068
-0.027238
-0.019182
-0.059465
-0.043352
-0.035295
-0.027238
-0.019182
-0.059465
-0.059465
-0.035295
-0.075578
-0.043352
-0.027238
0.061385
0.206404
0.206404
0.190291
0.174178
0.109725
0.101668
0.117781
0.125838
0.214461
0.319197
0.383650
0.367537
0.351424
0.351424
0.351424
0.319197
0.270857
0.222518
0.150008
0.141951
0.109725
0.053328
0.037215
0.069441
0.061385
0.004988
-0.003068
-0.011125
-0.027238
-0.027238
-0.003068
-0.027238
-0.019182
-0.011125
-0.051408
-0.043352
-0.043352
0.004988
-0.011125
-0.043352
0.004988
-0.011125
-0.019182
-0.011125
-0.003068
0.004988
-0.019182
-0.011125
-0.019182
-0.003068
0.004988
-0.019182
-0.003068
-0.019182
-0.011125
-0.051408
-0.019182
-0.011125
-0.011125
0.013045
0.004988
0.021102
0.013045
-0.003068
-0.019182
0.029158
0.004988
0.029158
0.029158
-0.019182
0.013045
-0.019182
-0.156145
-0.309221
-0.365617
-0.381730
-0.397844
-0.373674
-0.365617
-0.365617
-0.309221
-0.228654
-0.228654
-0.180314
-0.140031
-0.099748
-0.083635
-0.099748
-0.051408
-0.011125
0.004988
-0.019182
-0.027238
-0.011125
0.004988
-0.011125
-0.011125
0.013045
0.029158
-0.003068
-0.003068
-0.019182
-0.011125
-0.011125
0.021102
-0.003068
-0.011125
-0.011125
-0.027238
0.021102
-0.011125
-0.019182
-0.019182
-0.035295
-0.011125
-0.003068
-0.059465
0.004988
-0.027238
-0.027238
-0.059465
-0.035295
-0.019182
-0.059465
0.004988
-0.035295
-0.035295
-0.051408
-0.059465
-0.027238
-0.035295
-0.027238
-0.043352
-0.019182
-0.051408
0.004988
0.174178
0.262801
0.343367
0.335311
0.335311
0.367537
0.327254
0.343367
0.278914
0.198348
0.166121
0.101668
0.093611
0.053328
0.174178
0.230574
0.262801
0.206404
0.182234
0.085555
0.069441
0.029158
-0.019182
0.029158
-0.011125
-0.011125
-0.051408
-0.027238
-0.019182
-0.019182
0.004988
-0.019182
-0.059465
-0.011125
-0.035295
-0.019182
-0.051408
0.004988
-0.019182
0.013045
0.029158
-0.003068
-0.011125
-0.019182
-0.011125
-0.003068
-0.011125
-0.003068
-0.011125
-0.011125
0.004988
-0.019182
-0.027238
-0.003068
0.013045
-0.019182
-0.003068
-0.019182
0.004988
-0.043352
-0.011125
0.013045
-0.003068
-0.075578
-0.212541
-0.317277
-0.349504
-0.381730
-0.405900
-0.389787
-0.389787
-0.341447
-0.301164
-0.244768
-0.188371
-0.148088
-0.123918
-0.115861
-0.091691
-0.059465
-0.091691
-0.043352
0.004988
-0.011125
-0.003068
-0.011125
0.013045
-0.003068
-0.027238
0.004988
-0.003068
-0.011125
0.013045
-0.003068
-0.035295
-0.003068
0.004988
-0.043352
-0.027238
-0.011125
0.013045
-0.019182
-0.019182
-0.019182
-0.011125
-0.003068
-0.051408
-0.035295
-0.011125
-0.003068
-0.011125
-0.051408
-0.011125
-0.019182
-0.035295
-0.035295
-0.035295
-0.043352
-0.059465
-0.003068
-0.027238
-0.011125
-0.019182
-0.019182
0.004988
-0.059465
-0.035295
0.021102
0.174178
0.295027
0.327254
0.327254
0.351424
0.359480
0.367537
0.327254
0.270857
0.230574
0.133895
0.174178
0.053328
0.077498
0.069441
0.029158
0.053328
-0.011125
-0.019182
-0.003068
-0.035295
-0.019182
-0.019182
-0.027238
-0.003068
-0.043352
-0.043352
-0.027238
0.013045
-0.027238
-0.011125
-0.011125
-0.027238
-0.011125
-0.043352
0.004988
0.004988
-0.035295
-0.043352
-0.019182
-0.003068
-0.043352
-0.011125
0.021102
0.117781
0.222518
0.230574
0.230574
0.198348
0.125838
0.085555
0.061385
0.045272
0.061385
0.029158
0.029158
0.004988
-0.003068
0.021102
0.004988
-0.019182
-0.019182
0.004988
-0.043352
-0.204484
-0.333391
-0.365617
-0.365617
-0.397844
-0.381730
-0.397844
-0.333391
-0.244768
-0.220598
-0.172258
-0.164201
-0.140031
-0.091691
-0.051408
-0.067521
-0.043352
-0.019182
-0.027238
-0.011125
-0.011125
-0.003068
0.013045
-0.027238
0.029158
-0.003068
-0.011125
0.021102
-0.003068
-0.035295
-0.003068
-0.011125
-0.003068
-0.019182
-0.027238
0.004988
-0.027238
0.004988
-0.003068
-0.019182
-0.035295
-0.011125
0.029158
-0.019182
-0.027238
-0.019182
-0.035295
-0.043352
-0.043352
-0.043352
-0.019182
-0.019182
-0.043352
-0.003068
-0.035295
-0.027238
-0.019182
-0.043352
0.013045
-0.019182
-0.035295
-0.011125
-0.027238
0.053328
0.198348
0.319197
0.343367
0.335311
0.359480
0.367537
0.359480
0.343367
0.278914
0.222518
0.182234
0.125838
0.109725
0.077498
0.045272
0.085555
0.013045
0.013045
-0.019182
-0.027238
-0.043352
-0.019182
-0.035295
0.045272
-0.035295
-0.011125
0.013045
-0.027238
-0.035295
-0.003068
-0.027238
-0.027238
-0.019182
-0.019182
-0.011125
-0.043352
-0.027238
0.004988
0.004988
0.004988
0.004988
0.004988
-0.011125
-0.003068
-0.003068
-0.003068
-0.003068
0.021102
-0.003068
-0.011125
0.004988
0.021102
0.013045
0.013045
0.029158
0.029158
-0.003068
-0.019182
-0.003068
-0.003068
-0.019182
-0.003068
-0.019182
-0.091691
-0.212541
-0.341447
-0.341447
-0.397844
-0.422014
-0.293107
-0.180314
-0.123918
-0.083635
-0.011125
-0.011125
0.013045
0.004988
-0.011125
-0.019182
-0.011125
0.004988
-0.019182
-0.003068
0.021102
-0.003068
0.021102
0.021102
0.029158
0.029158
0.013045
-0.003068
0.004988
0.021102
-0.011125
0.013045
-0.003068
-0.027238
-0.011125
-0.003068
-0.027238
-0.011125
-0.019182
0.021102
-0.011125
-0.027238
-0.043352
-0.027238
-0.027238
-0.011125
-0.027238
-0.043352
-0.051408
-0.027238
-0.035295
-0.035295
-0.035295
-0.051408
-0.051408
-0.019182
-0.035295
-0.051408
-0.059465
-0.043352
-0.019182
-0.027238
0.004988
-0.035295
0.021102
0.198348
0.335311
0.327254
0.343367
0.335311
0.359480
0.375594
0.278914
0.262801
0.198348
0.198348
0.109725
0.085555
0.117781
0.053328
0.053328
0.037215
0.053328
0.004988
0.013045
-0.043352
-0.035295
-0.027238
-0.035295
-0.019182
0.021102
-0.035295
-0.027238
-0.027238
-0.043352
-0.019182
-0.027238
0.029158
-0.027238
-0.003068
-0.019182
-0.043352
-0.011125
-0.027238
0.029158
0.004988
-0.003068
0.004988
-0.003068
0.004988
0.021102
-0.011125
0.021102
0.004988
0.029158
0.004988
0.004988
-0.011125
0.013045
-0.011125
0.021102
0.021102
0.004988
0.029158
0.021102
-0.011125
0.004988
0.021102
-0.067521
-0.252824
-0.357561
-0.373674
-0.389787
-0.397844
-0.357561
-0.381730
-0.341447
-0.293107
-0.236711
-0.188371
-0.115861
-0.140031
-0.107805
-0.091691
-0.067521
-0.075578
-0.011125
-0.003068
0.021102
0.037215
-0.003068
0.029158
-0.011125
-0.027238
-0.011125
-0.019182
-0.003068
-0.011125
-0.027238
-0.019182
-0.027238
-0.027238
0.085555
0.158064
0.230574
0.238631
0.190291
0.182234
0.085555
0.061385
0.045272
0.029158
-0.019182
-0.003068
-0.035295
-0.019182
-0.011125
-0.043352
-0.035295
-0.019182
-0.019182
-0.019182
-0.027238
-0.043352
-0.051408
-0.003068
-0.043352
-0.027238
-0.027238
-0.059465
-0.043352
-0.043352
0.021102
0.206404
0.286971
0.311141
0.351424
0.351424
0.351424
0.343367
0.319197
0.254744
0.214461
0.150008
0.109725
0.093611
0.061385
0.029158
0.029158
0.004988
-0.019182
-0.011125
-0.043352
-0.011125
-0.043352
-0.003068
-0.027238
-0.043352
-0.027238
-0.003068
-0.003068
-0.027238
-0.019182
-0.059465
-0.027238
-0.027238
-0.027238
0.021102
0.021102
-0.027238
0.004988
0.013045
-0.003068
-0.003068
0.004988
0.004988
-0.043352
-0.027238
-0.011125
0.021102
0.037215
-0.011125
-0.003068
0.004988
0.004988
0.013045
-0.011125
-0.003068
-0.003068
-0.003068
0.021102
-0.011125
-0.003068
0.029158
0.021102
0.037215
-0.107805
-0.268937
-0.349504
-0.389787
-0.413957
-0.373674
-0.349504
-0.405900
-0.333391
-0.268937
-0.228654
-0.156145
-0.148088
-0.107805
-0.083635
-0.083635
-0.067521
-0.051408
-0.027238
-0.035295
0.004988
0.004988
-0.019182
-0.019182
0.004988
0.037215
-0.027238
-0.027238
-0.019182
-0.059465
0.004988
0.004988
0.013045
-0.019182
0.013045
-0.003068
-0.035295
-0.027238
-0.019182
-0.019182
-0.043352
-0.027238
-0.035295
0.013045
0.004988
-0.027238
0.004988
-0.027238
-0.027238
-0.035295
-0.043352
-0.051408
-0.043352
-0.027238
-0.059465
-0.059465
-0.051408
0.029158
0.141951
0.174178
0.190291
0.158064
0.125838
0.101668
0.174178
0.262801
0.359480
0.359480
0.383650
0.359480
0.351424
0.319197
0.303084
0.254744
0.214461
0.150008
0.101668
0.093611
0.053328
0.061385
0.013045
0.021102
0.004988
-0.051408
-0.035295
-0.043352
-0.019182
-0.019182
-0.011125
-0.035295
-0.003068
-0.019182
-0.003068
-0.019182
-0.043352
-0.027238
-0.027238
-0.011125
0.013045
-0.035295
0.004988
-0.019182
-0.035295
-0.011125
-0.003068
-0.011125
-0.027238
-0.003068
0.013045
-0.019182
-0.011125
0.004988
-0.027238
0.021102
0.004988
-0.011125
-0.011125
-0.027238
0.004988
-0.027238
-0.027238
-0.019182
-0.011125
0.037215
0.004988
0.004988
-0.011125
-0.019182
-0.099748
-0.260881
-0.333391
-0.373674
-0.373674
-0.405900
-0.381730
-0.405900
-0.357561
-0.293107
-0.228654
-0.180314
-0.156145
-0.083635
-0.107805
-0.099748
-0.043352
-0.051408
-0.019182
-0.003068
0.004988
0.004988
-0.003068
0.013045
-0.011125
-0.011125
0.013045
-0.011125
-0.035295
-0.011125
-0.003068
-0.027238
-0.027238
-0.027238
-0.027238
-0.027238
-0.043352
0.013045
-0.051408
-0.027238
-0.051408
-0.011125
-0.019182
-0.043352
-0.011125
-0.027238
-0.035295
-0.027238
-0.035295
-0.051408
-0.051408
-0.067521
-0.067521
-0.043352
-0.051408
-0.027238
-0.051408
-0.043352
-0.011125
-0.019182
-0.051408
-0.019182
-0.035295
-0.027238
0.077498
0.238631
0.319197
0.327254
0.375594
0.327254
0.359480
0.343367
0.278914
0.238631
0.190291
0.133895
0.109725
0.109725
0.077498
0.029158
0.029158
0.053328
-0.027238
-0.027238
-0.051408
-0.067521
-0.019182
0.085555
0.174178
0.206404
0.174178
0.190291
0.166121
0.101668
0.061385
0.037215
0.021102
0.021102
0.013045
0.013045
-0.003068
-0.011125
0.021102
-0.019182
-0.011125
-0.027238
-0.027238
-0.027238
-0.011125
0.004988
0.045272
0.004988
0.037215
-0.011125
0.004988
-0.011125
-0.003068
-0.011125
0.004988
0.004988
-0.003068
-0.011125
0.029158
0.045272
0.021102
-0.003068
-0.003068
-0.027238
-0.099748
-0.260881
-0.301164
-0.381730
-0.389787
-0.397844
-0.422014
-0.389787
-0.357561
-0.244768
-0.188371
-0.164201
-0.164201
-0.083635
-0.083635
-0.091691
-0.099748
-0.051408
-0.075578
-0.019182
0.004988
-0.027238
-0.019182
0.004988
0.021102
0.004988
-0.003068
-0.003068
-0.003068
0.021102
0.004988
0.004988
-0.011125
-0.003068
0.037215
-0.027238
-0.043352
-0.011125
-0.019182
-0.003068
-0.011125
0.004988
0.013045
-0.011125
-0.035295
-0.011125
-0.019182
-0.035295
-0.043352
-0.043352
-0.003068
0.013045
-0.051408
0.004988
-0.003068
-0.035295
-0.027238
-0.027238
-0.035295
-0.035295
-0.011125
-0.051408
-0.019182
-0.051408
0.117781
0.238631
0.335311
0.383650
0.359480
0.399764
0.343367
0.311141
0.303084
0.238631
0.190291
0.141951
0.093611
0.093611
0.053328
0.061385
0.021102
0.004988
-0.051408
0.013045
-0.019182
-0.011125
-0.035295
-0.027238
-0.035295
-0.067521
-0.043352
-0.011125
-0.027238
0.021102
-0.035295
-0.035295
-0.011125
0.013045
-0.003068
-0.019182
-0.027238
-0.019182
-0.027238
-0.019182
-0.035295
-0.027238
-0.019182
-0.035295
-0.019182
-0.027238
-0.003068
0.004988
0.109725
0.206404
0.238631
0.206404
0.182234
0.141951
0.125838
0.053328
0.077498
0.045272
0.029158
0.021102
0.029158
-0.003068
0.013045
-0.019182
-0.131975
-0.276994
-0.349504
-0.381730
-0.381730
-0.397844
-0.389787
-0.389787
-0.357561
-0.268937
-0.196428
-0.172258
-0.140031
-0.115861
-0.107805
-0.099748
-0.099748
-0.011125
-0.027238
-0.019182
0.021102
0.021102
0.021102
0.013045
-0.027238
-0.003068
-0.027238
-0.019182
-0.011125
0.004988
-0.035295
-0.011125
