158.245132
181.450380
138.478475
126.192469
132.418290
189.018243
189.005274
168.785701
151.650198
154.246882
145.594214
145.069356
144.790798
133.074944
131.505732
144.885982
135.849063
128.160196
106.965384
85.727930
83.439007
73.430725
54.408208
58.694625
48.960967
55.224349
36.207984
37.804654
23.974489
33.624413
17.779647
20.695703
21.036939
16.523230
17.978580
23.360613
22.751150
21.521678
20.586889
20.794984
19.107417
11.306220
10.143185
6.229153
1.437097
-1.007473
-5.859246
-10.372449
-14.052628
-17.455484
-17.211167
-16.339158
-19.362235
-28.108545
-22.826766
-21.730294
-23.776149
-20.125133
-22.668109
-26.872577
-21.504983
-15.844243
-17.117056
-19.567956
-16.084747
-12.009675
-15.611651
6.172104
60.019093
120.716937
147.471380
152.295343
145.705299
140.512236
145.049799
165.914384
136.950969
139.823806
136.493397
150.682587
145.388902
130.656773
124.311878
103.562824
92.334345
78.512998
73.582759
59.533569
64.649098
53.758336
39.375505
34.109600
26.229267
21.352593
9.161573
11.331843
11.065347
1.902530
1.845617
8.112959
-6.378497
-0.291260
1.593572
-0.263843
-10.340043
-3.398132
-0.217911
3.861091
-0.183017
4.323232
-1.144435
3.274618
1.352827
0.504089
1.361937
2.372797
0.189033
0.279197
0.024329
-0.243857
-1.014740
-0.661897
-1.866396
-4.045685
-2.663691
-2.246972
-4.256929
-2.776855
-7.414404
-7.047922
-4.974036
-5.309262
-11.784352
5.082443
53.644003
90.730637
109.855788
128.904612
173.229665
193.215351
183.902263
185.060270
165.500775
163.553733
177.938676
150.604127
117.924402
88.619546
64.165853
60.167269
47.394474
42.404153
37.316014
32.327695
24.665457
19.824056
5.152077
2.727547
-8.951453
-4.171692
-6.385425
-10.511076
-12.223740
4.292555
6.001135
2.113916
-1.471529
5.067625
3.175176
4.363788
3.882216
7.888301
-0.822855
3.504311
2.178190
1.142659
2.657466
0.571329
0.536872
0.095861
-0.802569
-1.454068
-1.783337
-2.702511
-3.825012
-4.473898
-0.834312
-6.637438
-5.566585
-8.077820
-5.485300
-2.474169
-2.694894
1.148429
-7.379327
-1.723514
-1.849759
-10.575044
6.981560
39.494710
85.468805
96.922680
116.461846
126.372362
109.785011
120.909483
123.996534
115.984189
115.324274
101.563542
93.303102
68.519778
56.655328
51.995558
41.618236
41.819485
29.382593
34.175768
14.436622
4.535949
19.090045
6.870972
-7.461638
6.598584
-0.339329
-0.330783
1.839519
1.780573
-2.310826
1.650486
-3.988442
5.039166
1.412669
-3.346801
-1.652158
-2.838621
-0.179812
0.935004
1.763980
-0.121774
1.954379
3.382055
1.710896
0.898878
-0.616789
0.119367
-0.344137
-0.634212
0.042787
-0.324337
-1.920757
-1.132192
-0.604628
1.734213
0.135376
-5.891623
-2.055364
-5.900354
-3.742718
-1.201248
-4.346382
-11.347261
-11.991992
-8.913301
23.066318
59.937001
85.193629
115.420613
116.915502
110.197704
108.708587
108.791483
99.328026
90.983759
73.839547
59.542302
57.458117
42.484846
30.040521
30.069104
22.665821
10.210332
5.278478
0.362990
-9.322920
-16.392279
-13.751708
-6.600061
4.843661
44.275874
57.358194
54.994883
47.156594
44.997618
32.408530
35.476798
17.416916
11.714215
9.351590
4.909940
7.636010
3.924047
1.708932
3.295037
2.088921
0.435218
0.829787
0.017886
-0.000000
-0.391134
-0.991020
-1.758740
-1.873027
-3.378139
-3.357594
-2.361849
-4.353803
-3.855067
-4.261385
-4.647883
-0.182305
-4.152040
-7.305534
-1.709792
-1.841525
-3.690721
5.175360
-0.279510
22.928613
57.886700
103.474159
109.436687
116.518069
112.404610
109.952380
118.120098
115.781456
104.297501
88.201598
68.785874
64.155122
49.169866
46.557723
36.643276
31.831349
19.427589
16.838674
19.183807
6.905020
6.850543
4.363530
1.973672
-7.175809
-4.789211
-2.470004
-6.521411
1.705366
-2.217515
5.257076
6.705609
6.346873
2.855968
5.445433
1.107777
-1.377713
4.185257
-2.017320
-0.924879
0.577263
2.134021
0.800202
0.262208
0.331575
0.239158
0.008066
0.027005
-1.638091
-1.985806
-1.956998
-1.750626
-2.790534
-4.028675
-0.784816
-4.918864
-3.199420
-5.957418
-2.451631
-6.881845
-8.961323
-3.065627
0.261282
-7.048816
9.824541
51.984799
87.264089
101.165542
101.734151
108.862008
106.077124
114.639284
108.771155
83.073887
66.811438
54.402710
42.605886
42.525193
27.568040
22.601246
17.710834
7.764431
10.122480
-6.942138
0.360535
-4.419903
-4.345875
-13.490164
-17.713470
-10.670854
-10.259997
-1.743812
-11.535467
4.039755
0.265842
1.930098
-2.926280
-2.682424
0.197803
1.378641
1.243480
3.074655
0.938017
0.100304
0.621740
1.303950
-0.260270
-0.476224
0.165942
-0.179660
-0.609267
-0.682706
-0.472045
-0.601034
0.530513
0.626046
-0.122842
3.532173
-13.159718
-31.130353
-39.985395
-44.862224
-39.333168
-40.270299
-30.599350
-31.255536
-36.288226
-22.634633
-15.727419
25.845705
85.183355
102.523165
109.546865
107.895059
112.600344
108.642398
107.986904
92.670232
78.512998
61.317132
54.071492
42.101233
36.856112
34.407356
26.903141
29.212751
11.911180
9.428325
11.760552
-7.566943
-0.351435
1.967574
1.916759
-2.522149
3.952377
3.802062
9.663350
1.626094
8.829104
6.659617
-0.242123
5.850161
1.197212
-4.054257
1.000048
0.894352
1.688823
1.458931
-1.416744
-0.078334
-0.480279
0.789923
0.838526
0.081107
-0.362407
-1.197596
-0.579160
0.486579
0.079261
-1.817700
-2.106117
0.967752
-8.246133
-6.084339
-5.546561
-5.991656
-5.146179
-6.950321
-6.015956
-8.160065
-6.831372
-12.636723
0.286183
38.158859
73.350247
94.832430
86.302988
104.774233
100.501078
102.835951
108.877377
81.343002
64.411935
54.715369
52.443962
35.152539
30.097686
20.226672
17.727654
5.303758
0.364042
0.362639
0.361937
-6.848234
-6.714087
-6.606769
-15.505774
-8.471263
-8.172278
-12.099851
-9.575237
-7.302501
-8.730699
-3.144010
-6.106558
-2.717260
-3.850036
-3.494545
-0.940978
-0.834868
0.123802
0.802856
0.643366
1.370630
1.356822
0.592705
0.192629
-0.203089
-0.025281
0.512836
-0.836700
-1.557015
-0.691601
-6.555993
-2.557416
1.688823
-1.144435
0.932972
-0.178744
-2.807822
3.942807
-0.219691
-0.236070
1.461452
-3.865247
1.577311
9.338921
43.841750
78.656685
104.782496
111.137146
110.033290
105.685397
121.339900
108.522553
109.915241
75.900499
56.273260
54.228069
48.885373
39.186200
21.902264
-22.618175
-52.385098
-49.571449
-44.000511
-29.221892
-12.237385
-21.459949
-7.220940
-7.123156
-17.829599
-4.568486
3.793220
-0.295177
1.615931
-0.268116
-1.976003
-3.469996
2.776390
-2.997748
3.602323
5.723855
2.989451
2.560441
3.673000
1.184829
-1.669842
1.536127
1.565248
0.123990
0.091984
-0.676967
-1.027141
-1.899635
-0.788180
-1.005909
-1.180092
-2.132947
-2.414657
-2.662830
-1.942144
-3.266494
-4.829073
-2.477758
-5.535767
0.233576
-3.122237
-3.283356
-1.569631
2.205826
42.393032
77.261905
88.485201
102.168448
104.557084
102.518738
112.812891
97.669724
95.881974
71.870337
57.076879
30.126269
32.760793
20.226672
20.188328
15.219181
15.190247
-4.541831
2.797830
-4.467803
-4.406839
-4.358939
-8.869911
-13.201089
-10.625203
-3.932189
-12.031024
-9.598062
-20.448621
-5.097608
-6.514266
-6.061257
-1.257307
-3.863451
0.182722
0.168694
3.104291
-3.234482
0.805559
0.086626
0.980867
-0.965863
0.434817
0.075690
-0.173002
0.287365
-1.689069
-0.056970
-0.072637
-0.089372
-1.524540
-6.559579
-0.132456
-0.147410
-1.251469
-3.753384
-4.099388
-5.718184
-6.104682
1.357789
-1.954048
1.528529
7.137932
11.222273
49.860979
74.757277
100.940052
105.266260
107.780763
112.950397
118.358244
118.084506
99.429368
88.287231
68.652826
48.932789
41.698735
34.208852
29.212751
26.747632
16.773217
14.268917
2.069205
2.044813
2.024487
-2.695049
4.235321
4.129217
8.398108
6.012951
-4.383694
-4.260498
5.386460
-3.870380
1.445191
1.357789
-4.701133
2.546498
1.071190
4.433612
3.955297
-1.018191
3.603480
1.763708
-0.073349
2.536438
-1.000930
-1.487030
0.236672
3.664208
5.337342
6.532508
6.063376
6.242810
4.050733
2.437498
0.989378
3.007976
-4.095199
0.173604
-1.079122
-3.876865
-2.712906
-4.507359
-6.559566
-6.912913
-9.016016
2.219342
36.635730
67.089717
106.381834
93.709731
107.710243
105.159613
107.815158
92.355680
86.746797
74.265135
49.869615
47.619733
27.620500
25.190762
22.665821
22.622771
10.210332
5.268366
-2.068149
-4.459094
-11.595281
-23.199539
-18.119827
-6.398840
-8.480323
-8.136037
-11.975962
-7.556186
5.941864
-5.124438
-6.532386
-4.520774
1.686808
-2.495177
-3.461008
-0.948986
-0.834868
0.124504
-0.586610
0.083821
-2.145583
-0.587869
0.384257
0.121344
-0.123195
0.300628
-1.159493
0.327251
-1.587102
1.127356
-0.831568
2.335722
0.766297
-3.166683
-3.475077
2.237027
-4.129475
-4.370173
-1.712536
2.975335
3.205227
1.536659
-0.278798
17.124357
44.207098
93.202982
100.940052
101.304655
113.238119
113.533819
129.836355
118.434559
92.579822
83.685497
53.862722
46.692803
36.856112
24.423998
34.275020
26.851305
11.957527
16.675033
6.891401
4.451950
-2.730727
-5.035601
4.248584
-0.333276
4.023113
-0.315829
-4.368294
-2.261426
-0.279866
-2.063826
3.138912
4.528440
-7.649903
1.160625
-5.133482
0.961428
3.817322
2.431057
2.787105
-0.691601
2.271003
1.007833
0.397890
0.079272
-0.108722
-0.395735
-0.724397
-1.026229
-1.328061
-3.981212
-1.271539
-1.445722
-1.628614
-1.794089
-7.382167
-8.139726
-10.121983
-3.903695
-7.189987
-10.960423
-13.409780
-12.346594
-14.739676
-1.659725
40.767936
86.742604
137.278775
164.680501
164.482308
171.752985
163.860831
139.159802
116.029777
88.959737
69.603592
52.642991
37.636782
25.238517
22.730396
22.708871
15.175781
-4.572313
-4.520058
2.781611
-14.027017
-6.693965
-8.897091
-4.162982
-17.196289
-16.586753
-11.989727
-9.529586
-1.597660
-12.249884
-11.605153
-1.341394
-2.704197
-1.145190
-3.474423
-3.186005
-1.811507
-0.704732
-0.586610
-1.062519
0.066285
0.692674
-0.158164
0.070284
0.211562
0.148381
-0.332078
0.333349
-0.579079
1.763708
-2.264065
1.503141
-0.135660
-3.136596
-2.381773
-0.178744
-1.501214
-8.562848
-4.708654
-5.099789
-0.256366
-2.074803
7.220717
11.376002
58.438002
92.172241
99.333321
112.959066
108.580832
118.060443
118.477316
108.415423
92.127772
70.911207
58.906900
54.280262
41.537736
46.287562
24.329878
24.212229
21.711993
-0.363185
9.336342
6.864162
-2.708771
13.584121
11.019000
1.890334
1.847650
-4.491489
-0.303366
-2.250448
5.304744
-0.265980
3.121228
-3.398132
1.250060
1.146396
1.046798
-0.166638
3.798925
3.274618
2.042905
1.675182
0.866517
1.269375
0.180903
0.321943
-0.159777
-0.741824
-0.724397
-2.188710
-1.866396
-1.656723
-1.985384
-3.089520
-6.028232
-2.817099
-8.551967
-9.253857
-3.668936
-2.547432
-4.225649
-9.456880
-6.632048
-10.585649
-10.957317
2.251780
36.934623
78.223309
89.259688
109.619542
98.876818
91.829326
105.738678
100.392947
69.073784
71.801759
40.007353
44.919333
37.494218
22.708871
15.305983
10.268900
15.161314
5.248142
-2.066147
-6.861649
-11.549630
-11.321377
-13.380040
-19.844860
-19.324270
-12.333864
-13.910066
-13.474873
-7.202839
-12.185411
-13.114248
4.934266
30.501090
37.417725
30.767344
27.808945
21.365049
14.121269
10.371500
3.486523
2.690844
1.337300
0.761382
0.007716
-0.076845
-0.027061
0.254077
1.116788
-0.584568
1.136198
0.611818
0.699220
-3.805516
1.865663
-4.647883
-0.180880
-0.195835
-4.392738
1.280549
-0.243192
-0.256366
1.546822
-0.280578
15.377050
64.666713
94.167151
97.381047
112.473221
97.849275
109.444979
113.495544
99.526943
85.158852
68.652826
61.257774
39.299783
41.738985
39.261922
26.877223
24.282818
14.338794
6.952688
4.478476
9.198366
4.350267
6.605394
-2.612715
-11.462555
-0.320457
-2.404137
1.717562
-0.289124
5.291125
6.769997
4.780399
6.043326
1.235832
-4.219737
7.155422
5.422600
-0.145630
1.542930
1.967999
-0.085099
-0.065516
0.919307
-0.225045
0.114946
-0.154270
-0.977349
0.313573
-1.093303
-2.904515
-4.158513
-2.012214
-4.694026
-5.230880
-3.823394
-6.414711
-2.203420
-1.101144
-5.327383
-8.741076
-1.393448
-8.388318
-6.985395
-3.505440
0.292496
57.616675
77.053080
99.104968
96.338912
110.674486
113.619765
108.452490
105.373858
78.889037
52.394205
45.004731
35.052673
27.725422
27.646731
20.284189
7.801475
2.835676
7.705161
-2.070151
-6.901893
-13.985721
-11.332789
-1.946022
-1.893968
-1.849923
-5.956153
2.332877
-7.465584
-1.585648
-12.153175
-9.787251
-7.566605
-8.410704
-6.436750
-8.236435
-2.007463
-6.544017
0.120295
1.430852
-1.018973
-0.796889
-0.858545
0.025602
0.005962
0.393950
-0.027417
0.844401
-1.286230
-0.077622
1.175987
0.628079
2.369770
-0.137797
2.873687
4.323232
2.267974
-2.859154
-34.032235
-47.022021
-47.623205
-43.551066
-41.967667
-44.068815
-17.985273
46.557799
80.193655
93.141046
106.637807
95.765623
96.306954
121.582823
99.234217
80.977811
78.817312
44.301325
44.258686
34.241936
34.208852
36.714221
19.315074
14.352769
2.071237
14.143138
9.179969
9.124779
-9.612891
-9.414687
-0.330783
-2.472749
1.764312
-12.352238
1.640323
1.567148
-0.260995
1.404539
-1.775659
2.648181
2.458078
-0.178744
4.148463
1.763980
1.481036
0.577263
2.664953
2.473652
-0.351289
0.483488
0.265533
0.010872
-0.152158
-2.047020
-1.160377
-1.956998
-1.136546
-5.028900
-3.171061
-0.774805
-5.919153
-2.059718
-5.923180
-7.694900
-6.824781
-14.948754
-4.675043
3.756618
-1.555617
-3.501086
6.215990
62.064941
87.129847
98.786303
98.779453
94.681101
111.038057
108.983599
93.163456
67.322424
57.458117
47.619733
40.235315
37.672423
22.687346
12.780383
17.710834
2.827566
-16.827472
-6.942138
-4.459094
-13.889362
-11.332789
-13.435102
-13.104731
-12.678001
-8.081676
-13.926184
-9.449697
0.276714
-5.057364
-3.104818
-2.891444
-2.665005
1.511099
-2.216483
-3.105517
-1.754897
-3.080459
-1.227993
-0.458476
-0.788180
0.343309
-0.304821
-0.074028
-0.098800
-0.214067
0.844401
0.738307
-0.601034
-2.606382
-1.581004
-1.770930
-0.136729
-0.150971
-2.422838
1.046798
-1.523169
2.595129
-7.797489
7.948511
1.475680
3.359962
-11.632548
29.123068
73.130257
99.261448
110.651300
109.216500
104.809249
112.009701
130.491433
106.626524
83.119509
76.047878
54.123684
63.908134
39.186200
39.261922
34.109600
26.721714
31.524393
24.047520
6.891401
6.816494
-2.703282
-34.954236
-66.004092
-60.178482
-58.233057
-49.837035
-30.250250
-27.036899
-16.717781
-10.707232
-13.372199
-3.321136
-3.059346
1.107777
-0.178032
1.980609
0.802884
0.666699
0.561002
1.552608
1.171266
0.239849
0.269681
0.125779
-0.248173
-1.894945
-0.258268
-2.008631
-4.685303
-1.817700
-4.336124
-3.207302
-4.496595
-4.975928
-5.478085
-7.185577
-5.128059
-8.259284
-8.947558
-9.704659
-8.513858
-1.563625
-11.163799
14.212398
58.146483
94.105346
105.916730
106.268190
94.777912
104.699988
97.008516
95.974080
74.406998
57.458117
40.121334
37.743705
35.219115
15.262582
20.226672
17.677195
-4.563604
0.364743
-9.377281
-6.848234
-4.393775
-11.309964
-15.634720
-15.296237
-10.454013
-20.650139
-13.748883
-7.465584
-3.409639
-10.241512
-9.635831
-10.541348
-6.893257
-3.702473
-1.011051
0.160277
0.138182
-3.053279
-1.878066
-2.065720
1.296541
-0.244254
-0.287403
-0.026027
0.245149
0.375785
0.574730
0.773675
-0.080114
-2.023367
-1.606670
3.265420
-1.073080
-1.199324
-0.169842
-0.184441
1.136233
2.630497
-3.290337
1.416735
-3.772851
5.216218
9.188294
29.371377
71.590042
97.471506
110.286916
104.409167
118.896041
119.517980
121.704284
112.037473
87.859068
80.977811
71.186858
46.467669
44.301325
34.142684
31.647175
29.099524
21.690852
21.521722
14.087236
11.598338
6.687110
8.885622
1.926922
-6.957676
8.269331
-0.307283
1.703334
1.630159
3.364383
4.950641
-0.243548
1.286647
5.408639
3.684039
2.179554
0.892319
3.522974
3.661413
3.759391
3.032669
2.333897
2.388953
0.965483
0.097828
1.154133
4.189816
6.397353
7.942011
6.631209
4.658975
3.840172
1.825221
3.904525
0.156419
-2.107619
-3.541496
-7.777492
-5.490466
-2.852253
-8.057351
-6.813251
-14.462614
-1.629694
18.167097
60.554874
92.379779
92.321439
92.744882
95.455588
100.353702
100.005703
90.721558
66.811438
54.767479
54.923808
30.269183
12.828839
15.334916
10.307945
7.786658
-4.563604
-2.084166
2.792424
-9.259498
-13.889362
-6.633598
-13.407571
-10.773568
-14.715979
-12.196209
-11.714418
-5.513466
-1.565627
-4.970168
-6.351182
-7.395415
-4.017720
-2.395021
-4.575388
-1.981336
0.137129
-1.437013
2.059649
0.079612
0.473063
0.332496
-0.128133
-0.034837
-0.109778
1.042808
-1.000401
-0.063735
-0.609268
-0.095781
-1.627202
-0.957813
-0.139933
-2.232912
-2.469036
-6.432314
1.144364
4.058572
-3.316002
-5.257747
1.496007
-3.937111
-0.284851
27.327381
72.006263
101.608800
109.189647
109.799921
111.783554
124.597328
116.684294
101.563542
82.957797
54.019299
51.597125
44.258686
36.536858
26.695795
29.127830
24.212229
19.165055
2.063107
11.644685
4.407740
9.014399
8.848828
6.421532
-0.326867
-0.316185
-8.522770
-0.295533
-2.184581
7.009155
10.034361
1.378115
1.286647
3.963236
6.117805
0.983787
-0.153820
-2.798114
-0.111804
2.382377
1.922459
-0.056258
-0.277189
0.225471
0.000000
-0.471129
-2.061533
-0.979277
-1.703313
-2.165382
-1.911603
-4.487544
-3.334144
-7.536075
-4.068018
-2.142455
-8.607155
-5.218661
-9.848262
-1.321373
-8.148652
-5.050657
-1.569631
-5.466514
24.181047
62.703324
93.090393
95.526782
95.593842
100.399562
107.071606
87.684023
86.085239
74.477930
67.450171
97.539876
107.708731
95.227772
82.590833
70.000949
50.059233
25.047497
17.441724
17.357627
0.359833
-2.018097
0.346857
-4.197819
-6.318351
-3.984444
-1.765835
-5.714687
-11.205095
-3.400930
-6.695469
-1.383438
-4.346382
-3.997598
-1.099142
-0.999038
-0.892928
3.797150
-2.962677
-0.548570
-0.444462
-1.146962
0.852013
0.293249
0.059270
-0.013886
-0.030621
-1.015445
-1.823476
-0.081895
-2.053455
-2.384414
0.713449
1.733033
-2.238045
-0.169842
-5.183033
1.138266
-4.528131
-1.772914
-5.302878
-7.274085
-0.272745
-2.195559
37.417280
76.138426
99.485262
100.538025
107.666467
109.838084
120.125286
107.344124
114.145070
73.511458
51.348104
43.960217
44.002856
31.647175
26.695795
29.269365
19.240065
26.410695
6.905020
4.469634
-5.127997
1.989933
8.812035
4.138059
-6.882458
6.060619
5.822280
-6.228060
-0.282003
3.355541
-0.254586
2.962072
8.790547
3.942807
8.689345
0.983787
2.934974
-1.012702
2.851493
1.145040
2.410044
2.569166
0.680968
0.089435
0.035392
-0.230793
-0.677445
-0.644478
-0.844789
-2.183502
-1.884774
0.115034
-2.454901
-7.462192
-2.998199
-3.286616
-4.892494
-7.887616
-9.961090
-9.181571
-8.194303
-1.517577
-5.285415
-7.402163
32.370622
75.692319
90.734819
93.213913
97.557107
109.706931
105.530940
95.053024
86.498713
69.537366
59.996823
42.847965
22.773446
35.252404
32.606115
15.248115
2.841082
5.283534
2.811347
-9.313860
-4.432967
-6.720794
-1.958035
-13.256151
-19.636624
-8.226639
-12.086085
-13.652173
-9.289920
-8.799175
-4.936631
-1.385440
4.771273
-5.436105
-3.635400
-2.155519
16.831203
22.720500
18.635377
15.916184
11.307843
8.058778
3.557593
1.763329
0.131151
-0.445959
-2.795262
-1.045532
-1.384013
-2.289256
-2.098586
-0.113940
2.424248
0.813047
-1.213046
0.981754
1.075255
2.502288
-0.213994
-9.590977
3.112386
-0.262063
-3.957644
3.532381
31.613988
88.330464
101.951687
110.894223
107.209285
114.666991
112.809770
110.723250
98.941491
82.957797
63.722893
51.397908
46.422642
29.071217
31.708566
16.887766
26.436613
14.199040
6.884591
4.429845
-0.354640
-9.702083
-2.626438
-0.332564
1.847650
-0.312268
7.818611
-6.197973
5.345602
3.337857
4.828066
4.555679
-1.698814
5.233870
4.801547
2.077871
2.866877
0.723612
2.056525
2.308790
1.784483
1.028262
-0.033470
0.600080
-0.110124
-0.265630
-0.212221
-1.046351
-3.712625
-2.796106
-2.690872
-3.823247
-4.291167
-2.783562
0.159575
-1.001040
-2.377603
-2.534368
-7.132924
-12.449300
-1.451509
-5.104316
-3.435767
6.119676
38.654428
79.880035
93.191909
102.602746
100.752965
100.907143
110.962969
107.296714
91.595561
62.363039
57.349192
47.709836
30.212018
25.262395
20.322533
15.305983
12.744041
0.366146
2.814050
-4.485222
-6.861649
-9.132656
-6.559817
-4.184755
-10.705092
-3.971381
2.357206
-1.697764
-9.278507
-8.776349
-4.896387
-2.987245
-2.778225
-9.461424
-3.568326
1.316467
-1.898599
0.129764
-0.632658
0.090484
-0.918817
0.055413
-0.202210
-0.217729
-0.000356
-0.019227
0.667349
0.298795
0.853254
0.485796
-0.782168
0.656536
1.609245
1.772822
3.037119
5.619574
-0.192274
2.497867
5.601805
1.343560
11.602157
6.843584
8.944972
17.039792
19.694495
39.173326
38.289307
37.070015
42.460283
60.079821
85.118824
81.583253
82.149242
65.867030
61.376490
46.422642
36.678749
34.109600
19.352580
24.235759
6.973117
19.033787
11.748966
-2.766405
4.394477
-0.348587
11.042174
1.896432
6.135526
1.790736
-0.301942
-0.291972
-4.029508
10.481575
6.530840
-0.236070
1.248027
3.840662
-0.183373
-0.166994
1.847979
2.431057
-0.826079
1.675182
1.293840
0.953356
0.612872
0.238339
-0.154023
-0.696173
-0.757934
-2.133648
-2.328186
-1.670137
-2.654631
-3.880310
-2.501853
-5.657609
-2.003109
-4.511967
1.473254
-9.364714
-10.057800
-10.895950
-8.262779
-3.313838
-3.461894
0.289690
36.678429
78.572910
99.671239
115.819853
104.991381
102.934214
101.147012
102.535304
89.044784
64.719537
57.458117
37.850627
25.262395
27.777882
22.730396
12.792497
17.677195
2.819456
2.808643
-11.766471
0.358080
-9.105476
-6.600061
-6.432377
-15.086699
-10.339886
-9.963268
-11.604294
0.280572
-1.537598
-13.428251
-4.554311
-8.713545
-3.876865
0.185528
-2.094555
-0.862897
0.128712
0.837998
-1.703674
-0.892690
-0.661897
0.485377
0.110832
0.010163
-0.153689
-0.544112
-0.408923
-0.068008
-0.084743
-0.776679
0.658568
-2.790592
-2.094317
0.926874
-1.366736
-1.473769
3.922378
1.248027
-0.238207
1.455354
-3.834449
-4.008975
7.423081
47.968675
93.631502
100.828145
109.308720
101.023462
125.668686
112.018838
96.234107
97.185978
78.056527
61.376490
56.273260
43.960217
34.341188
16.871402
24.259288
21.585146
16.642304
14.157113
-7.551899
6.762017
11.297082
1.943183
-22.617501
-56.525233
-50.586898
-54.860987
-43.064416
-31.991222
-21.473883
-13.644704
-8.068065
-11.931817
-0.198684
-0.180168
0.947200
2.785161
5.694712
1.961189
1.620705
0.378067
0.592414
0.926940
0.335410
-0.147562
-0.144150
-1.358109
-3.010736
-3.384836
-4.710047
-1.971970
-1.480559
-2.528682
-0.838872
-4.203921
1.370531
-1.111155
-5.336443
-10.154509
-6.197159
-1.457515
-1.535596
-3.474958
4.191435
42.890603
76.372699
89.646932
93.808895
91.624402
101.516240
108.240046
98.047556
88.449451
57.294729
52.543476
45.047430
22.838021
22.773446
25.262395
12.731926
15.146847
5.268366
7.690343
-2.050131
-4.437321
-6.660428
-6.553110
0.335283
4.727372
-6.036641
-5.822005
-5.627491
-9.130142
-10.516822
-8.285604
-9.374287
-1.261311
-2.530013
-3.548204
-3.232957
-2.864051
-1.572005
-2.052458
-0.510531
-0.402418
-0.653188
0.245993
-0.076079
-0.003561
-0.292588
-0.037387
-1.446889
0.404491
-0.086524
-1.473208
-2.467154
-0.131744
-1.127969
-0.161297
-2.551166
-2.766757
-0.203312
2.745443
-3.444331
-3.670188
-0.268472
-0.278086
17.145498
52.176206
89.251640
111.836589
107.816288
106.199678
111.209631
111.459304
113.473628
87.430905
73.154952
49.027620
49.075035
36.678749
31.616479
21.859981
21.711993
29.071217
21.500581
16.478663
6.802875
-2.711516
6.571346
1.928954
-2.544104
-0.321170
-2.395904
-2.316315
-0.288056
-9.605424
-0.262419
-3.582925
1.331365
2.679128
2.458078
-2.587098
5.306732
5.660050
4.723696
2.630733
2.722887
2.501602
1.168193
0.503917
0.106104
-0.344137
-0.496346
-2.047020
-2.740106
-3.513783
-2.373766
-1.336857
-6.427829
0.135025
16.185311
23.385827
33.907744
36.887917
32.405289
18.235825
18.072673
3.706058
9.352091
4.070091
12.094330
53.338250
83.171396
92.023948
94.304714
94.487479
108.465760
106.569631
96.066186
79.115946
74.690724
47.709836
35.219115
25.334027
22.794971
20.245844
7.838519
15.175781
15.045578
5.238030
-6.888479
-16.408397
-4.341520
0.342999
-8.661527
0.326515
-3.892998
-3.771070
-1.667733
-11.012379
-3.300775
-1.441498
-6.106558
-4.178697
-2.499531
1.416486
-2.064073
-2.803685
0.124504
-1.302021
-1.079937
-1.314646
-0.959155
0.031214
0.146624
0.083999
-0.181134
-0.312867
-1.203490
0.422784
-0.699834
1.335143
-1.734998
-1.037402
-3.144117
-0.165214
1.034602
-0.195479
-0.206517
-3.218473
2.984177
6.613625
3.324594
-4.019241
15.264535
56.545448
94.381411
104.899181
107.816288
106.423492
109.444979
111.347397
101.463578
94.932730
68.386730
58.679020
46.782857
34.241936
24.306348
26.747632
24.306348
16.822310
16.642304
11.667858
4.434266
6.721159
6.598584
1.930987
4.111533
-4.635217
-4.445291
-0.299450
1.638290
10.789034
3.236174
4.671444
2.864810
-0.213638
2.400605
2.214922
1.985030
1.750717
3.007866
0.558970
-0.617501
-0.060887
-0.043796
-0.186623
0.162215
0.091909
-1.434526
-0.579160
-1.621771
-2.487964
-0.534556
0.846107
-1.541523
-5.368535
-0.870905
-4.330763
-2.264384
-3.762840
-4.004305
-4.332967
-9.594535
-12.008110
-7.048816
-7.293441
4.241995
43.487688
81.136575
87.846076
103.362766
87.778285
85.302692
99.328026
78.813400
81.966918
62.599711
40.197321
40.273309
22.794971
27.804113
65.088660
79.721040
84.600390
66.875311
61.475520
46.178076
38.487605
23.686480
18.616207
4.813325
0.324060
-6.003105
-9.837728
-11.466639
-3.461894
-6.876673
-8.160065
-2.917571
-2.682424
-3.796377
-7.130515
-3.186005
-5.712671
-0.708737
-1.293311
-1.636601
-2.642971
-0.945740
0.029109
-0.253685
0.115765
0.449439
0.231718
-0.056258
-0.074061
0.514252
0.605720
-2.519807
0.770362
3.817322
-0.163789
1.032570
1.109809
-0.206517
-6.273155
-0.241767
3.209648
1.546822
5.345602
19.223898
68.808075
96.376321
110.043993
106.409216
110.966764
109.221165
121.218439
110.723250
89.957770
75.679429
46.512696
44.173409
34.208852
31.647175
26.721714
24.188699
14.240966
16.625940
4.469634
2.034650
9.069589
4.297215
11.030587
-2.538615
10.428076
1.760247
1.695203
7.423081
3.395330
-0.259214
1.400474
5.896153
2.634918
1.109809
4.571588
-0.158804
2.642158
-0.902924
1.211355
0.455306
0.742728
1.355650
0.838526
0.082785
-0.326166
-0.779175
-1.817042
-2.008631
-2.579265
-4.400287
-2.099410
-4.900508
-4.496595
-4.953102
-5.466673
-8.445973
-7.763727
-2.595332
-4.346382
-1.395450
-6.740770
-12.588368
-9.255682
14.161940
59.937667
83.908241
97.117548
92.744882
100.298045
101.820789
104.561728
93.342962
74.406998
54.975918
42.525193
37.886268
15.320450
15.320450
17.744473
10.298184
7.786658
-6.982382
-2.072154
-11.697995
0.353871
-13.627819
-6.526280
-10.842044
-8.326300
-8.072616
-5.761639
-5.540295
-10.860958
-8.582334
-6.432724
-5.997836
-5.572007
-6.413925
-8.268672
-5.375371
-7.517604
-2.307338
-2.609330
-2.739043
-2.156996
-1.186883
1.495432
1.416029
-1.546432
-4.943344
-7.781700
-8.729273
-10.058673
-10.527201
-10.172633
-5.788746
-3.805516
-6.124713
-1.278913
-1.399669
-1.501214
1.187049
-1.726258
-3.516194
3.214069
1.552920
-5.919666
29.016650
71.007332
92.381723
109.922532
114.437440
112.880900
124.218613
109.847102
106.102818
80.271609
68.519778
63.537652
46.467669
29.241058
36.572331
21.838840
14.310843
11.830073
9.363937
6.877781
4.412161
1.993998
-2.648393
4.155743
12.801496
8.204943
7.919793
-0.296957
-2.192815
3.377646
3.200806
6.245691
4.310530
6.789836
-0.191206
0.993950
4.028884
1.684402
0.650438
-0.095069
0.434980
1.888640
0.477468
0.238734
0.037505
-0.674508
-1.293954
-1.940932
-2.156996
-1.014618
-3.826802
-3.697708
-5.867050
-5.533720
-0.888924
-5.546561
-4.810953
-3.836621
-6.961734
-4.406748
-6.432724
-5.030535
-10.805897
-9.301333
18.274722
56.272349
84.000347
92.420603
93.035315
100.298045
114.299444
99.424837
86.167934
72.007494
60.167269
47.664785
32.822665
22.730396
17.912667
2.857301
10.268900
5.308814
10.161526
-4.506994
-11.675170
-13.930659
-11.344202
-4.228301
-13.035903
-10.476838
-10.134458
-9.837728
-1.649715
-3.427058
-5.017120
-9.677128
-9.002620
-4.051257
-6.322624
-8.252553
-4.158620
-4.542246
-2.287216
-2.591210
1.167939
0.063479
-0.256266
-0.489639
-0.144963
-0.159127
0.160577
-0.045932
0.755991
2.005244
-1.355146
2.104193
0.705318
-1.991655
1.901031
2.086713
2.285658
5.132688
5.463829
7.427108
4.705492
-7.254264
3.382067
5.400080
31.311099
75.698319
67.633774
62.848417
42.325203
40.549143
56.172344
61.870484
62.920182
53.601759
48.553465
48.837958
29.297672
26.773550
26.747632
26.592122
29.099524
14.254941
11.748966
14.185064
2.032618
11.355016
1.953346
-0.335412
-0.327223
-6.724500
-0.306215
1.685040
11.138420
1.550887
3.178701
4.623776
2.789653
8.133702
4.911927
2.144186
1.909873
-1.034657
2.158670
1.167145
1.436843
1.462540
0.473047
0.441522
0.001403
-0.443949
-1.072792
-1.250304
-2.587909
-2.138201
-4.480879
-0.644670
-3.325084
-2.682952
-5.101467
-6.731316
-8.574919
-7.928913
-11.248700
-9.098978
1.932801
-6.813251
-5.251878
-3.570759
20.295875
66.635898
94.832430
99.848521
93.132126
93.135732
104.907726
109.302264
90.896359
74.336067
57.458117
45.132828
32.760793
32.884536
22.708871
17.761292
5.339150
2.830269
2.814050
0.362288
-2.048129
-11.503979
-6.600061
-8.761189
-17.436409
-12.636704
-14.264668
-11.714418
-11.301454
-3.387866
-6.749830
-7.977462
1.770608
-4.037842
-3.702473
-3.407349
1.224558
-4.496595
-0.662689
-1.214929
0.608224
0.470360
0.041034
-0.422565
0.081497
-0.013886
-0.236023
0.268306
0.778096
-0.080114
0.542709
0.634177
-0.125334
-0.138153
1.909873
-0.170555
2.298921
-0.200108
-1.632947
-3.326269
-1.912881
3.258279
7.082742
3.532381
35.432532
69.616631
95.774099
100.866581
102.728396
105.904434
112.809770
112.802187
82.472664
82.796086
76.121568
58.906900
39.148339
34.208852
39.186200
21.775417
33.977264
24.023990
9.308746
16.544120
2.028552
6.653062
-2.631927
8.655662
6.244481
3.934693
9.929846
7.561057
1.611866
1.548855
4.855305
-1.836036
-21.021189
-31.793687
-32.915799
-28.773739
-23.831442
-15.952895
-4.509081
-3.185410
-2.051411
-0.428134
0.197164
0.299626
-0.026830
-0.462069
-0.915078
-0.657542
-0.844789
-2.704805
0.099252
-2.962677
-3.343204
-4.656373
-4.068018
-2.151165
-6.105783
