43.421124
50.402560
58.117890
67.430452
70.142310
87.504637
83.495089
83.658845
98.286468
116.352288
107.244362
115.215432
108.844007
104.167884
108.390906
121.299602
154.981040
129.485671
114.009588
98.388033
87.717414
73.776907
47.394310
30.478548
32.453552
42.683502
35.478722
32.864356
45.346924
32.706354
27.383648
22.575949
8.128010
1.035802
3.289506
-10.129960
0.959578
-7.430179
0.887532
-8.791434
-6.535883
9.558995
-0.907971
-0.830892
2.019872
4.436404
0.503283
6.558694
-0.484687
4.862219
1.516690
1.984726
1.441538
0.835674
0.734375
-0.242992
-0.995771
-1.410700
-0.981966
-5.561553
-1.499096
-10.427008
-26.120487
-35.002835
-33.198227
-32.206118
-29.294852
-33.443908
-32.663055
-25.956997
-15.542555
19.431070
90.525233
130.052063
148.276604
144.050908
156.493444
149.522728
158.272862
148.957996
148.517409
143.059238
145.141181
147.357504
144.073466
116.782453
103.897056
72.931140
78.391631
76.270493
59.021580
45.787782
53.805464
40.773996
38.163142
30.803170
20.522276
13.233883
3.602205
8.165659
5.680791
-7.639215
-3.041986
7.303446
-0.884964
-4.665790
0.984374
4.240847
0.886597
3.876305
3.487459
5.761623
5.252607
-0.460435
-2.167297
1.895622
2.231609
0.795148
0.203481
0.406820
0.279483
-0.033432
-0.149926
0.517054
-2.203541
-1.183442
0.807949
0.300717
-1.192094
-1.367617
-4.454612
-4.904357
-0.654523
-1.978291
-2.146500
34.551054
87.836132
129.983177
133.615238
139.108943
132.686732
137.759581
142.832431
134.591945
129.816675
138.521202
131.609888
111.131244
112.659571
93.615468
83.248058
75.708989
57.970827
48.216969
45.520335
30.537048
28.325129
23.197509
22.953325
3.503375
5.831215
-1.324723
3.340427
-8.065379
-7.873148
-7.588979
-5.286440
-5.064169
-8.577270
-0.996809
-6.059482
-5.599797
-2.303740
-4.805796
1.751687
1.605713
-1.528513
1.232292
1.706277
0.248509
2.802214
0.769835
0.285158
0.030280
-0.221071
-0.824059
-1.310042
-2.634963
-3.339663
-2.128827
-1.033451
-3.613180
-5.867389
-5.396899
-5.953413
-2.899413
0.713506
-2.001668
-7.959455
-2.262606
2.607346
63.224494
93.262397
117.651870
127.366827
139.397920
142.555618
131.431665
125.842403
117.903255
128.784465
128.079148
115.312781
106.856005
58.069619
1.379445
-23.304458
-28.348353
-18.439866
-23.282007
-23.237104
-27.967473
-23.012591
-22.810529
-20.314846
-10.512029
-5.641945
-5.531546
3.461667
1.198426
-3.011085
-0.899748
-0.862787
8.447492
-0.783584
7.602743
3.991743
-0.648410
0.741253
-0.544918
-1.627428
1.538519
-0.380175
-1.725703
0.331648
1.215143
0.198196
0.601496
0.363482
-0.083579
-0.201120
1.382023
-2.011054
0.209875
-2.634218
-5.185825
-2.816614
-2.282781
-5.484692
-2.805418
-7.874193
-3.334061
0.620228
-5.323986
-2.519487
-9.689623
0.802955
42.362073
84.101459
107.860547
118.070527
114.763623
113.351307
106.218763
118.805449
112.222906
98.676014
84.765803
65.202506
50.504624
48.399782
30.888049
18.424759
18.442256
8.508505
10.853315
-3.792029
-6.205560
-8.558496
-17.795195
-5.911201
-3.532401
-10.097835
-11.935735
-13.575663
-12.974697
-8.684352
-1.002034
-0.955003
-5.700092
-0.828279
-3.502266
-0.684571
2.734639
1.442766
-1.349333
0.321600
-0.921496
1.131773
0.154535
0.522799
0.908308
-0.061801
-0.383490
-0.370806
-0.539043
-0.215433
-3.860527
-1.719893
0.439995
-2.190539
-1.438592
-5.966356
-1.706396
-4.413223
-3.346818
-2.097803
0.869420
-2.437709
0.984374
13.956375
48.844933
79.364553
110.255012
115.815234
119.316926
114.471559
122.986538
119.101849
125.812472
96.384676
92.225341
72.790618
48.394938
48.348449
40.813353
38.495960
28.624759
16.208211
18.500729
1.349055
1.343770
-1.063435
-1.051819
10.516044
-1.006409
1.227495
-0.957831
-3.000785
1.121790
6.863887
1.022692
6.213001
2.577759
3.949213
2.233811
3.353793
6.722601
2.794828
1.505234
-3.687134
-16.677510
-15.276071
-13.823300
-7.635385
-4.384111
-1.202607
0.697041
1.620225
1.994703
2.060238
-0.278270
0.875844
1.712022
-1.257915
0.396779
-4.540278
-0.620556
-7.951240
-5.975177
-6.435630
-2.351277
-7.485034
-4.463437
-2.848593
27.296548
68.492712
95.738802
107.778596
115.626507
106.833132
116.434083
110.257914
106.972536
93.615468
69.933161
60.730617
48.262672
40.854969
30.771048
23.330700
18.424759
18.319774
5.986331
10.790639
-1.346933
-10.890242
-15.517245
-5.929223
-3.521431
-7.848074
-18.260119
-7.338242
-11.060796
-4.865928
-6.435588
-9.545976
-2.497546
6.612270
-0.766876
-1.960007
-0.636233
0.456296
-0.492525
-0.412833
-0.947093
1.183478
-0.555823
0.353053
0.149369
0.048606
-0.491268
-1.875840
-2.006041
-2.081276
-2.556694
-1.655978
-1.888396
1.357299
-3.332434
-0.474163
-1.696096
-3.096969
4.818246
6.552221
-3.805843
-2.420542
-0.785696
-10.081976
33.471060
64.932702
94.110389
122.457539
120.843740
115.452044
113.800742
118.981666
116.813947
96.290642
96.290642
67.668534
58.293610
48.255472
40.852710
26.072280
8.774279
13.682937
1.364911
13.511239
-3.478027
-5.827879
1.300166
8.131846
5.741548
-0.980008
-0.946214
1.145574
3.095529
8.696584
4.672223
0.960590
-7.268619
-0.673755
-2.025702
0.722755
-2.905224
-0.475219
1.446060
-1.929069
-0.971650
0.301258
0.650912
0.777691
0.097777
0.160608
-0.102388
-0.492600
-0.750915
0.580501
-2.872934
-2.848382
-1.868276
-1.287169
-6.117523
-7.707699
-2.907542
-5.643223
-3.400142
-5.056533
-13.212443
-9.284800
4.303035
35.739971
73.735736
118.764321
152.777113
157.955998
147.273943
147.826475
129.147784
117.612337
119.588038
101.407864
77.456820
70.534880
50.792947
28.513425
30.917299
18.442256
8.508505
10.989112
3.547506
-3.802999
-8.591928
-8.516706
-6.025340
-3.598222
-10.344124
-12.275263
-9.755173
-13.529435
-3.093593
-8.684352
-2.819339
-6.076198
-5.683376
0.661994
-6.200049
-0.692410
-2.901535
-0.559153
-2.246737
-2.565877
-0.335753
-0.265206
-0.195965
0.104415
0.229802
-0.052294
-0.064419
-0.627528
0.206124
-1.645747
-1.423560
-0.995684
-2.726537
-0.392848
1.538519
-0.483668
-1.716696
-4.470538
-0.606169
0.808640
-2.286640
-2.444576
0.989659
-6.386482
31.721854
70.747195
98.355019
107.804600
108.028240
100.306231
116.698180
123.688527
121.625703
96.854845
77.491440
72.509573
48.255472
40.931424
31.340435
35.917637
25.946811
13.709351
6.227605
-1.082444
-5.851121
-5.816258
3.639189
3.580015
1.249957
3.413589
1.181249
-11.156179
7.024495
-4.613496
-6.247290
0.952663
0.898489
-2.187071
0.766358
4.522388
-4.028397
0.584018
-1.318423
3.530618
2.945792
-1.289919
0.221980
0.150629
0.617317
0.059171
-0.342674
-0.752212
-1.186823
-2.376700
-0.833734
-1.016571
-0.414139
-3.876369
-8.064216
-2.667249
-4.087016
-0.695023
-4.797438
-8.044215
-0.871391
-4.313254
-8.095401
-1.029470
29.803547
65.278111
96.939631
106.804088
113.905604
105.236266
98.667073
103.238041
112.550405
89.259321
74.993403
60.500795
45.823804
30.888049
23.508289
15.965044
15.980191
10.989112
3.540717
-3.788372
-8.608643
-13.241614
-10.729619
-22.101191
-7.990158
-14.484816
-13.960897
-11.426442
24.716289
40.726571
49.412453
48.404980
46.992432
33.499273
26.553610
15.444024
10.788507
3.473024
9.107631
2.550123
0.858870
1.659604
-0.548509
0.322501
0.145974
-0.052294
0.077957
-0.621718
-3.151611
-0.209096
0.323720
-0.306252
-1.133020
-2.144055
-1.411124
-0.481555
-1.709830
-7.040558
-4.748923
-5.043684
-7.015062
2.640631
4.544633
4.720829
29.990608
71.169818
109.070792
104.001350
117.257351
120.058287
116.938546
119.822950
116.467660
106.027664
82.562281
65.275861
48.580894
43.195196
38.385020
21.152792
23.534064
23.329618
15.927684
6.197227
-3.457427
1.319986
8.267095
-3.302924
-3.217089
-3.131254
-7.278952
7.235822
-6.787684
-4.613496
-4.375267
-2.461743
-3.898810
-2.139004
2.148749
1.967529
1.808499
-0.459379
4.093784
1.176079
-0.285132
1.800502
1.797800
0.406820
-0.199137
0.024303
0.159553
-0.343733
-1.203538
-1.604718
-2.505719
-2.340214
-2.724677
0.381116
-3.384952
-3.752700
-1.802768
-3.231937
-3.448201
-0.804763
0.697495
-0.940632
-4.559554
-2.888817
27.975567
69.545200
95.173016
104.530299
111.928487
99.051335
105.747795
106.032347
112.768738
91.884658
65.078192
45.867156
53.277210
33.401562
33.306761
25.899057
15.980191
6.043781
5.963351
3.506769
-8.550138
-10.911658
-10.708203
-19.768389
-12.536439
-9.980045
-7.522116
7.083674
-11.021619
-4.829884
-11.834403
-7.709906
-2.475606
-6.681918
-6.189341
-5.621806
-6.215984
-2.529081
-2.204686
-4.669042
-1.507837
-0.731346
-0.194659
-0.325449
0.135790
0.059174
0.085885
-0.377673
1.335584
0.269547
-0.854915
0.393750
2.874041
-6.724711
-26.403086
-30.969454
-33.877066
-35.426159
-26.578587
-37.199591
-30.923608
-29.816372
-16.950738
-8.293410
26.167011
69.578826
104.140637
115.347622
113.736196
111.798037
121.814458
117.099314
117.044804
91.421829
77.191376
58.125617
48.162494
46.096563
28.569817
23.534064
35.883035
18.500729
1.355661
13.405580
1.333199
1.314701
3.613300
-1.011689
5.680791
-0.963111
3.273051
3.139910
6.965324
-4.584443
8.144248
0.940771
0.878669
-3.614099
0.758430
-0.556535
5.176796
2.594329
0.486241
-1.067785
2.172437
2.747153
0.935660
0.862212
0.066065
-0.014627
-0.066628
-1.092237
-1.659771
-3.004829
-3.121051
-5.771646
-4.257166
-4.831753
-4.390363
-0.587895
-4.162237
-8.382702
-8.937440
-2.281799
-7.228037
-6.084556
-11.772766
2.692031
28.077420
69.788082
101.455878
111.487226
98.615306
108.617402
101.604205
103.850730
98.200696
86.726697
72.876334
50.648786
40.932272
33.401562
23.375098
20.919776
20.979320
8.468026
3.520348
1.081744
-8.550138
-13.254673
-3.638446
1.019095
-16.907211
-12.105499
0.937651
-11.348089
-1.088259
-6.686325
0.796690
-4.325269
-5.641587
-3.772596
-0.752506
-5.600390
-0.625782
-2.541096
-1.331050
-1.844247
0.258950
-0.261287
1.514659
0.099195
-0.049644
-0.012673
0.083242
0.668328
-0.918051
-0.213321
-1.446802
-0.308364
-0.355886
-2.184728
-1.424858
2.770525
-0.526965
-5.768410
0.765037
-6.571339
-3.904621
2.651726
-0.798368
2.903215
37.748982
79.458587
101.923631
102.198778
116.192253
112.033649
129.428268
127.187941
119.691049
98.917568
77.491440
67.930561
52.985571
43.278665
45.743671
30.833018
30.773322
-8.417056
-44.767051
-70.976192
-84.427979
-67.145562
-61.167148
-51.007747
-32.139871
-31.281434
-34.361757
-41.359433
-14.475825
-4.549581
-6.140848
-4.084745
-3.805843
-0.646298
-3.277093
-2.951707
3.956033
1.542217
1.312919
1.834865
0.913496
2.549041
0.893130
0.752323
0.050210
-0.054851
-0.685325
-1.199319
-0.973186
-1.738444
-2.709175
-1.784173
-3.651497
-1.385901
-4.540278
-6.072338
-3.045710
-2.018515
-3.514281
-3.796625
-8.945272
-7.870529
-2.826652
2.725979
47.975464
74.611198
100.365155
103.376110
101.795605
106.109596
101.910549
102.158830
105.790911
99.341459
55.603518
48.491189
40.932272
25.997253
23.530488
18.477251
23.397296
13.423541
6.009311
-1.352159
-10.997324
-10.890242
-3.634789
-12.719262
-5.730981
3.150321
-5.364535
-3.152101
-4.998089
-12.250456
-2.768144
-2.607248
0.698540
-8.031156
-4.730575
-3.117798
-2.823439
2.361211
-2.120583
-1.086049
0.256862
0.202566
-0.847032
-0.108434
0.033413
-0.089268
-0.383490
-1.514238
-0.580243
-0.222825
-2.087888
0.399035
-2.016225
-0.404464
2.570026
-1.606828
-1.757897
-0.580823
2.159844
2.307778
0.897168
-9.396039
-2.602512
4.787661
51.955545
80.586993
112.546687
113.818432
102.927188
110.465362
117.539464
110.342372
112.887884
89.248431
72.579834
70.395873
43.195196
38.385020
26.097373
40.852710
16.099117
15.990023
6.203302
11.003400
1.325271
8.343173
3.583713
3.517143
5.674715
-3.103787
-0.921925
3.125116
2.999372
10.275410
0.977767
2.577759
3.961365
6.508901
-3.265472
4.294156
1.704945
2.497118
3.758051
-1.009417
0.311829
-9.430936
-7.412454
-4.959945
-1.571612
1.266114
3.604041
5.289029
4.438411
3.302068
1.505200
-1.844247
-2.108569
-1.407841
0.444810
0.491797
-4.321038
-2.040455
-6.382089
-5.382492
-4.169079
-6.193208
-8.288149
0.835324
30.275467
74.782522
101.480324
110.149962
97.417499
113.660934
112.408974
105.076107
99.246396
80.148709
65.451133
45.650393
36.055888
28.486526
33.243560
20.919776
20.939624
1.099495
5.963351
-11.029449
-6.163508
-13.202438
-15.332332
-10.461914
-3.473893
-1.204532
-3.258146
-7.212873
-6.970494
-8.513021
-6.285145
-4.265196
-11.668107
-3.700508
0.584727
-0.672813
-2.781388
-2.463000
-2.090547
-3.116087
-0.873958
-1.135383
-0.180288
0.465348
-0.150183
-0.026401
-0.250638
-0.982536
-0.566510
0.795148
-0.885815
-2.489091
-3.623745
-3.168678
-2.492682
-4.976046
-0.544918
0.726719
-4.830801
-0.670587
4.180090
-7.722907
1.010800
6.686373
59.999454
84.760306
112.674002
117.760619
110.148751
114.895427
120.231905
125.187782
102.885400
91.153992
72.579834
53.139301
40.852710
40.931424
25.871531
38.348041
16.005608
13.577277
8.596765
8.571405
6.087864
-8.064981
-5.630324
-12.295093
3.428382
-0.950438
-0.918757
7.125932
6.838528
-2.647146
4.447422
-2.386208
-3.782602
2.226414
-0.579767
-1.744164
1.686453
1.475647
2.071818
2.434482
2.011829
0.680499
0.173091
0.455678
0.133666
0.091658
0.448113
-0.750915
-0.614331
-4.464479
-2.181414
-4.022108
0.363366
-3.259583
-4.604527
-0.620556
-6.803630
-9.963178
-6.371381
-5.390849
0.725688
-2.720607
-12.003906
2.742952
50.356849
85.529399
94.541157
108.314919
99.659960
97.868957
143.209611
164.898779
172.366733
156.580725
132.528873
120.471738
88.476227
80.835044
65.824074
50.552678
35.750330
13.449134
3.557691
-3.773745
3.466033
3.421901
1.036846
-10.386957
-5.706952
-16.445459
-7.455252
-13.329113
-10.838796
-8.459480
-4.523510
-9.232565
-7.035289
-2.219635
-4.705501
-1.872246
-2.787396
2.343976
-0.446800
1.677551
-0.308318
1.505787
0.137828
-0.104515
-0.031354
-0.168503
-0.813494
0.462295
0.220658
-1.255057
-2.778556
-4.657144
-1.181087
-5.943987
-0.453042
-0.498452
-1.768197
-4.519664
0.779571
0.841673
0.911702
-0.775135
2.836644
18.059441
67.853732
96.546191
113.183263
109.246802
114.716680
106.468769
117.659647
113.164797
102.683069
72.579834
67.799548
53.139301
45.743671
30.713626
35.848432
23.443199
23.420483
13.550862
11.035890
10.938419
-1.053931
3.631792
-10.237343
-1.001128
-5.374664
-3.069453
-7.090633
9.053978
-0.850114
2.829247
0.959269
4.125409
5.401507
-4.847176
4.581560
2.995326
-2.603081
-1.339023
-0.347438
1.013351
1.868127
-0.181639
0.155914
0.714788
0.105660
-0.240293
-0.116273
-1.445607
-2.835326
-1.369669
-1.627983
-1.928349
-4.675047
-1.459035
-2.655235
-0.632314
-5.664639
-6.071551
-2.219635
-8.592684
-10.956068
-4.505489
-4.691715
10.429157
50.715686
86.016468
117.092892
104.714312
114.418421
105.320532
112.408974
114.862345
101.505278
77.604638
55.656273
38.479610
43.421545
31.005049
16.086221
18.512246
13.474727
-6.289662
-8.708938
-11.050865
-18.185908
-13.097967
1.032669
-14.900869
-12.340557
-9.819422
-11.557030
-15.184523
-6.861841
-6.502451
-6.193208
5.642652
34.501614
39.026807
35.543422
27.607780
26.027407
20.111265
14.566507
7.531848
7.740812
3.097039
2.117185
0.882959
0.047526
-0.311136
-0.704151
-1.113541
1.105780
-0.237610
-1.551390
-4.063852
0.471707
0.521916
-3.602631
0.634228
1.945339
-3.253851
-0.628345
-5.256566
0.923594
-2.537277
2.825549
12.436685
62.563273
90.082097
113.819839
127.369296
119.421710
117.658134
118.861482
104.370982
98.628336
79.714759
67.537520
50.478830
40.852710
33.578849
33.321046
28.377520
16.036778
6.215454
1.347734
-8.261488
-5.798827
-1.041258
-5.595461
-7.688342
-0.970503
-7.344455
-7.033318
-6.812248
-0.843778
-0.811041
-0.764575
4.137560
2.333667
4.953495
7.065995
8.819280
0.580054
1.409076
1.962455
1.622215
-1.278299
1.002493
1.202143
0.752826
0.016906
-0.481869
-0.768927
-0.511942
-1.117361
-1.947392
-1.012914
-2.649456
-3.897786
-0.527799
-5.771986
-5.247019
-3.201901
-4.764007
-2.234262
-5.507860
-0.934100
-6.326935
-4.745781
16.235652
59.173092
93.183107
108.727143
111.454214
96.172961
110.513188
98.875102
112.441239
97.070521
72.599501
63.394608
43.298538
33.527963
38.552213
28.378928
21.038864
20.959472
8.500409
1.083833
-1.343014
-10.868826
-6.025340
-10.536871
-10.344124
-5.670908
-7.639126
-13.621891
-9.144805
-1.068663
-8.320273
-9.637388
-2.530457
-5.357418
2.026662
-1.992918
-1.806425
-0.581363
-4.154783
-2.724677
-2.912631
-0.287415
1.360065
0.390395
-0.230374
0.028725
-0.140769
0.120239
0.521469
-0.192200
-0.793114
0.367323
-2.636471
-0.378063
2.430285
0.584018
1.804801
0.701614
2.100670
3.645428
-11.608975
-45.669081
-59.151761
-57.782252
-29.555429
23.075622
52.793839
73.850490
75.657732
85.172290
84.555719
102.817842
104.370982
96.008540
65.023343
65.275861
53.139301
38.274081
40.813353
43.111727
25.921718
13.550862
20.827364
3.757536
3.720553
-3.423093
-1.028586
1.273740
-5.490873
-5.333991
1.175964
5.206886
-0.874403
2.932801
2.795962
-0.752958
0.883955
-8.140646
0.767680
0.701614
2.922418
2.624708
0.492848
-1.081519
0.343540
-0.217545
1.721989
1.347162
0.431106
0.000000
-0.578243
-1.060112
-1.253686
-3.020238
-3.134110
-3.760932
-1.206721
-3.092425
-6.317845
-0.586589
-1.813738
-8.290246
0.597257
-6.574836
-11.810184
-6.000977
-9.885505
-4.745781
20.154622
59.519133
101.342011
111.124469
105.048863
101.435871
101.195746
108.311378
102.857181
106.812058
72.391876
53.176402
43.503550
38.334404
28.325129
28.405827
33.338361
20.880080
15.828720
-6.223581
-1.350852
-8.474917
-3.671357
-12.810674
-5.785047
-10.033586
-1.186242
-3.210609
-9.080556
-2.972921
-8.245316
-2.669413
-10.617062
-3.832669
-2.157471
-5.728888
-2.967615
-3.710910
0.392602
0.332041
-1.585932
0.729870
0.942186
-0.141095
0.186711
0.003698
0.184918
-0.546182
0.528866
-0.201704
-0.247114
1.035541
2.704980
0.482277
1.505234
-1.551894
4.158907
-0.571319
0.755788
3.706185
-2.276339
-2.444576
2.777470
6.568030
27.924406
71.000769
106.872805
128.696505
119.576311
117.941383
132.582520
115.197943
119.219825
103.188897
77.191376
62.696481
55.819096
38.422000
43.195196
35.640815
35.710021
28.322578
13.471617
-10.723326
-60.729088
-62.298709
-61.607200
-62.305675
-56.494988
-40.075499
-32.419185
-29.152511
-12.607992
-17.669180
-11.535623
2.625837
0.886597
0.820532
-6.021966
-5.546548
0.632906
3.584099
1.357299
1.889547
2.163984
-0.211209
1.646178
1.814149
0.701317
-0.036044
-0.862925
-0.894296
-1.278760
-2.098808
-2.072761
-2.432151
-0.433736
-3.962035
-3.410026
-3.802847
-5.332685
-3.267981
-4.847586
-5.181902
-0.880536
-4.361313
-13.568392
-6.602746
24.160538
67.840485
93.496503
111.729064
100.834261
105.672932
104.360902
103.850730
103.256239
89.773290
58.081038
58.301459
40.893620
30.800298
33.464763
18.512246
20.880080
8.540887
3.544112
3.516954
-8.600285
-10.858117
-20.150484
-8.165674
-10.290583
-7.839716
-5.436623
-13.498616
-3.078967
-10.564562
-15.484903
-6.092914
-10.524606
-2.311053
-6.264299
-3.201901
-1.769857
-7.814257
-2.270766
-3.394500
-0.969033
-0.276964
-0.607017
-0.394927
0.453355
0.003698
-0.290522
-1.045920
-0.508142
-1.098175
1.433868
-0.961350
1.198269
-1.256622
-0.425585
-3.684509
-9.836240
0.706899
2.108067
3.712260
-5.412134
0.942092
2.766375
8.425832
37.516537
73.345351
115.164745
112.693991
119.446619
114.534876
112.427652
107.755854
116.467660
93.856236
72.158267
60.593306
50.576562
42.986523
45.655448
23.465915
28.377520
16.021193
13.418787
10.992569
-1.057099
3.657680
-8.015854
-1.011689
1.236744
1.202390
-5.113194
1.128397
3.021562
2.899516
6.305985
-5.747834
-2.262606
8.096178
2.082178
1.893562
3.956033
5.481099
3.823032
3.249035
-0.844615
2.079383
1.251053
1.418218
0.379054
-0.150442
-1.207658
-0.678827
-1.362339
5.204360
12.253738
19.158614
21.444104
18.404635
23.419773
14.757360
8.958667
4.501169
8.951936
2.155662
-0.901439
-6.134703
-8.266732
2.709005
49.938205
88.737742
112.932187
107.617612
99.451029
108.840435
101.910549
108.952274
91.268573
92.060682
85.170606
50.985163
36.089839
25.972704
23.419495
16.040779
20.959472
8.524696
1.088009
1.079656
-6.199552
-18.043830
-5.977281
-10.451206
-5.742996
-5.616842
-11.779029
-7.296452
2.861768
-2.929041
-4.577576
-7.742031
-5.641587
-8.200921
-2.106276
0.548181
-4.028511
-4.561694
0.382161
-3.308835
-2.730592
0.692528
-0.197271
0.785276
-0.334316
0.011892
0.358467
0.392026
-1.269109
1.202991
-0.854915
1.755881
1.213063
-0.393904
-0.438258
0.609123
-4.126650
-0.569207
2.145050
-2.135570
0.889240
2.673916
-2.595645
6.627201
47.517294
86.193079
108.220971
121.943439
104.798968
112.269262
108.350233
122.683117
105.199323
90.975434
70.056453
58.013621
45.743671
48.069516
45.787782
23.602213
21.010417
8.655936
3.768631
8.571405
1.329235
5.996728
12.837659
-3.268590
1.228816
1.194462
-3.004219
3.136211
-2.808515
2.884723
2.751582
4.265150
5.570568
5.147915
-1.919267
3.080386
3.913768
0.533808
2.114348
-0.306252
0.315792
1.597629
0.510374
0.504284
0.303243
-0.027435
-0.770991
-0.750915
-0.617987
-1.788592
-2.164698
-0.397156
-0.453332
-1.400528
-5.563045
-1.722320
-4.295964
1.887477
-4.939523
0.666171
-7.420784
-11.325894
-11.926859
-4.817869
40.124987
80.753031
103.050022
105.896708
99.555495
97.569664
104.883228
99.946655
103.954590
82.461957
90.115936
102.966486
113.224912
103.550969
88.226294
97.812225
75.351196
62.736739
28.190632
20.542664
8.314210
-6.097428
-1.298595
-1.271160
-3.481207
3.143532
-7.497042
-1.131371
-6.978852
-10.355621
-2.771801
-2.621875
-7.153079
-0.811295
-2.084336
0.539828
-5.097104
-1.521200
4.568355
-1.820217
-2.644926
-1.638150
-1.195181
0.093974
0.037590
-0.016897
0.244092
-0.384540
-0.172135
-1.214384
-0.269291
-1.026584
-4.413291
-0.404464
-4.479498
-3.790950
-1.747597
-3.195746
-3.370060
0.827138
-2.334707
-0.763519
-0.803648
8.490812
53.650077
84.068788
114.258926
109.366986
111.530289
114.895427
113.004796
115.544230
119.691049
91.689667
74.962999
57.845628
43.278665
38.532940
36.056048
25.971905
13.616899
11.100871
1.345091
1.335842
3.698362
3.653982
-3.344125
-5.531546
-3.199922
1.186534
1.148216
3.114021
-0.854339
-10.004323
6.255266
-0.731838
2.389142
5.088744
-1.888366
1.878768
3.812331
1.475647
2.857135
0.373930
1.935751
1.906101
-0.136230
-0.077091
0.202874
-0.216263
-1.057762
-1.349234
-1.454276
-1.327617
-2.848382
-4.792317
-3.779996
-6.086705
-4.658068
-6.215984
-8.074515
-6.007302
-6.392797
-8.409861
-5.817103
-14.982146
-4.673693
-2.950981
46.453809
79.247843
105.177041
103.933694
97.723843
98.068486
109.821249
100.044069
101.115622
80.377487
60.443339
45.823804
48.445485
35.954035
21.038864
18.442256
13.474727
10.957774
3.544112
-1.345626
-13.346084
-10.868826
-15.332332
-1.267240
-12.405851
-14.269085
-7.446894
-1.122226
-8.877100
-17.833685
-9.820211
-4.223145
-5.549650
-6.574836
-0.734216
-9.181752
-1.704036
1.398634
6.124089
17.762451
16.817616
12.970395
10.089761
5.143336
1.794187
-0.515062
-3.025393
-4.051821
-3.592209
-3.186467
-1.504906
0.399035
-4.426233
-2.231212
2.570026
-1.610261
4.302609
0.729362
-3.404922
3.870229
5.773442
4.441346
-0.804705
12.312006
57.895241
86.496576
114.648003
120.051322
106.042537
110.811649
113.581940
117.923957
105.095780
86.806892
77.491440
65.338990
50.869760
23.556780
33.417722
23.443199
18.518691
13.498032
8.596765
6.136470
6.106091
-3.368158
1.277704
3.498651
5.601807
5.455990
1.142931
3.095529
-4.671600
1.012121
4.429194
0.906417
3.918835
2.204224
-3.149263
0.656690
-3.692697
1.453456
1.238951
3.711298
2.945265
0.237835
1.065086
0.258885
0.216602
-0.284169
0.084577
-0.768937
-0.232545
0.235979
-1.609961
-4.100460
-4.648930
-6.025067
-7.760978
-6.242102
-3.117798
-4.680427
-6.403505
-6.906791
-5.808745
-2.724264
-4.667686
8.461198
48.607476
85.529399
103.619359
95.681548
113.114170
109.732570
110.367080
107.808258
101.505278
72.807126
60.385883
45.780451
43.380543
25.948155
25.874509
20.939624
8.548983
6.038036
-8.683865
-3.759118
-6.157501
-8.424769
-10.654662
-17.226885
-7.906579
-9.840838
-7.421821
-3.141131
-8.834267
-1.032082
-2.746204
-4.247174
-3.958823
-6.510587
0.584727
-4.287606
-1.696723
1.378266
1.181371
-2.432151
-1.997540
-1.129376
-0.497315
-0.105821
-0.098732
0.164044
0.091170
0.443803
-0.976155
0.285402
-2.112452
1.105810
0.451887
3.245976
1.568106
1.730834
-1.768197
3.335566
6.400600
-2.187071
4.180090
-12.971614
-37.228350
-34.594714
1.092721
48.158025
64.430407
72.590991
85.515496
97.624790
100.255095
106.343670
96.478710
84.283206
67.930561
57.901626
38.089182
45.743671
33.514399
23.465915
28.404991
15.927684
10.949249
8.537593
6.069637
10.635176
3.568920
-14.476978
3.428382
-5.200351
3.187988
-0.882852
1.057046
1.013443
-2.489210
5.790348
-5.207439
-0.622009
0.709542
1.815896
3.719348
1.427568
3.508958
-0.284075
2.879228
1.002493
0.662253
0.358467
0.018492
-0.481869
0.097106
-1.195181
-1.123368
-1.947392
-1.020228
-1.928349
-4.792576
-2.396920
-5.837280
-0.638846
-9.483667
-4.814154
-10.904441
-5.524576
-2.621875
-11.572444
-8.438064
12.344887
60.896361
92.765246
104.188696
107.035382
103.184213
98.667073
105.510020
102.657652
91.972670
73.014751
58.246354
43.503550
43.421545
18.652225
31.034299
3.591638
6.055272
1.099495
-3.813969
-6.205560
-8.541780
3.404927
-10.611829
-3.543371
-12.314440
-9.819422
-5.334498
-5.142264
-8.802143
-2.863219
-7.945486
-4.181093
-6.960332
-3.622413
3.194242
-5.418351
-1.656499
-1.448065
0.348748
-0.369721
0.234935
0.600870
-0.159385
-0.091450
0.129530
-0.038018
-0.088708
0.480787
-1.022639
0.824735
-2.218893
-2.579156
-0.373839
2.375604
1.605089
-0.505844
-1.805965
-0.589272
3.608973
-5.256566
-0.736062
-6.075346
2.851437
21.811957
70.240046
104.199095
124.585268
114.568060
108.733930
117.658134
120.844708
118.866406
103.492394
81.844348
60.359806
58.069619
52.985571
43.028258
48.162494
23.579497
25.821343
20.807025
11.014230
3.742743
1.312058
10.635176
1.273740
10.169480
14.353617
7.557038
5.225113
-24.642692
-42.310820
-49.453091
-40.071836
-44.038043
-27.754695
-21.257880
-13.159033
-8.582855
-5.616916
-3.940690
1.172381
0.976368
-1.719438
1.377849
1.137162
0.541506
0.001044
-0.556827
-0.802359
-1.893525
-3.921501
-4.244562
-3.721755
-4.270225
-2.228715
-5.327987
1.517450
-8.826559
-4.488196
-3.466222
-9.415131
-4.006881
-9.415388
-6.352009
-10.303386
18.180631
55.218093
96.939631
104.074829
110.058185
109.768200
112.956488
108.738642
103.455768
97.255947
67.603460
55.445254
46.170625
31.063549
28.432727
25.923606
11.093571
11.041342
1.091142
-8.683865
-3.777402
3.452454
-15.517245
-10.515455
-12.588674
-3.448296
-16.161305
-9.433927
-11.113031
-14.438616
-8.320273
-6.168135
-5.783671
-6.928207
-3.556332
-5.793138
-0.646685
-5.811162
-2.306810
-2.749751
-0.987317
0.229714
-0.219481
-0.969517
0.196895
0.008353
0.371935
0.121560
0.178376
-0.193256
1.952657
-0.290412
2.713433
3.855522
1.479345
4.786912
5.295928
0.704257
-3.306145
0.800712
3.991743
0.939450
0.984374
10.248995
29.768730
71.169818
102.962576
112.444115
110.809188
120.185602
112.196794
125.660158
122.226621
108.673910
82.243200
75.253553
53.241788
43.195196
28.514875
35.640815
23.443199
23.375050
23.306901
13.379165
6.106091
6.069637
5.942047
8.106487
-0.993736
-0.965223
7.472507
-2.935551
10.843331
-0.834274
2.788565
7.678553
4.040349
2.292985
2.108067
6.867883
4.032111
0.557592
3.963823
4.028278
5.105145
3.101379
1.954705
1.281124
0.581129
-0.054066
-0.348424
-1.436467
-3.117091
-5.486671
-3.867754
-3.116087
-5.192961
4.785896
18.121428
24.319945
27.773096
26.429632
22.765919
6.518257
7.071891
-4.373328
0.799823
-2.914414
26.165084
67.604655
91.494842
107.152742
103.489606
101.540337
106.388691
108.845458
108.539516
87.559807
70.334307
60.788073
43.462548
28.540325
26.021802
18.494748
20.919776
18.477251
-11.254321
3.520348
-10.965200
-8.541780
-6.025340
-8.249253
-14.931688
-10.055002
-9.723048
-9.380385
4.866048
-1.062130
-6.452304
2.484952
-5.733524
-9.831184
-4.947880
-7.038688
-1.788141
-1.605304
-1.396871
-2.716320
-0.980004
-1.303588
-0.610674
-0.409554
0.200290
-0.014627
-0.045410
0.953050
-0.149958
-1.547494
-0.796547
-0.293580
0.422818
2.162954
-1.373357
0.582697
-0.513237
4.454764
0.745217
2.237509
2.429824
-0.748734
0.983053
4.714753
29.731750
77.358069
96.729422
117.112157
110.929371
105.251350
114.507579
116.392477
106.661431
101.554306
69.513379
65.275861
50.381097
45.611336
38.200121
35.848432
25.921718
18.392958
20.746007
6.185075
6.093940
3.657680
-3.340691
-1.009577
1.227495
1.205032
3.269352
5.164356
4.988160
1.037226
4.562860
2.603647
-0.695932
-2.118403
3.463156
-3.033054
2.873812
1.564407
1.331410
1.116905
3.275452
2.575456
0.893130
-0.305572
0.129443
-0.100295
-0.084918
-1.177902
-1.353981
-2.690111
-3.867754
-3.865402
-6.777159
-4.090533
-1.535827
-2.787396
-1.850305
-0.713313
-4.864301
-5.223691
-8.879978
-7.784863
-4.613620
-1.041227
30.130261
70.111925
102.139083
103.153076
103.817105
95.075960
108.729586
99.459586
103.455768
80.072450
60.213516
40.932272
43.667560
21.078560
23.530488
11.062234
6.072507
13.487524
62.736739
67.022896
66.442332
56.097245
43.352700
26.442167
19.054066
9.756493
9.443115
0.915724
-5.064169
0.842633
-4.625635
-9.467623
-7.292286
-2.332994
0.608742
-9.465907
0.510592
-0.565686
-3.142573
-1.904320
0.892817
-1.249522
-0.599704
0.353053
0.053252
-0.005810
-0.409390
-0.102436
-0.487542
-0.204872
-1.382887
1.695124
-0.342158
-2.126624
-3.324246
3.778519
-2.864551
-0.563927
-6.011401
-0.643130
-8.567738
0.938128
9.839563
6.593389
37.702493
79.834722
100.769343
114.838361
106.656212
114.174326
112.081366
120.063317
114.408367
93.306297
72.579834
67.668534
55.443751
25.946811
33.449948
33.482173
28.377520
8.639030
13.458410
8.579859
3.709458
1.304130
-14.829327
1.269776
-3.203355
3.343320
1.158787
-0.889188
6.906152
1.031941
-0.780416
0.923594
0.858850
2.244906
0.739932
3.098613
4.981854
2.491042
2.126499
0.381858
0.317114
1.130083
0.844524
0.492133
0.236686
-0.300352
-0.992468
-0.158078
-1.021244
-2.291555
-2.794841
-3.233877
-2.096554
-5.079870
-1.572394
