645.823609
722.448604
437.238100
296.172259
302.844644
212.133806
197.849431
164.656532
129.089067
99.867763
78.177818
63.708279
56.901533
47.144626
34.614151
46.787131
24.474031
24.309302
28.770045
11.780073
2.304577
-2.213419
0.025665
-2.076387
-8.164801
1.966857
-7.396128
7.110052
13.426892
3.101962
1.431739
1.300932
10.252153
0.011779
2.590983
4.352244
4.103831
2.585911
3.183611
0.671464
0.305925
-0.578429
-2.831304
-2.200294
-3.504454
-6.928858
-6.045364
-8.088910
-6.266117
-6.184159
-4.884819
-7.250968
-6.874232
-4.787643
-6.540891
-4.209954
-2.926851
12.343425
71.212614
119.117182
151.316195
158.068623
152.642756
156.074959
160.260468
135.962320
101.235003
83.006001
87.959156
81.525516
82.171903
80.303085
68.397796
54.884876
54.884876
59.819975
57.599688
57.271796
59.877001
44.387169
29.581645
22.264658
24.266664
16.795272
11.798838
-0.027359
2.276204
-6.637122
2.135263
-8.373606
-0.023799
3.837816
-5.606113
7.034738
-0.019734
4.631628
-1.452850
-1.349419
1.202700
1.096994
3.896600
-0.861127
2.102702
-1.761307
-0.005578
1.743145
0.420647
0.540948
-0.032516
-0.294410
-0.267097
-0.353032
0.005709
-2.343513
-2.079032
-4.658901
-2.647956
0.011613
-5.463683
-3.589140
-6.460278
-4.144017
-12.073042
-6.505593
15.611233
52.644112
79.788419
104.542207
111.338600
108.391825
97.229755
107.095588
112.897545
117.786977
115.333710
100.349751
83.621647
56.522911
49.483384
34.515347
22.347152
22.304787
22.262423
19.660134
7.348198
4.879916
-2.385290
0.028159
-18.701010
-9.139702
-11.173583
-13.033663
-2.074065
-4.009579
-3.846018
-5.506626
0.020731
-1.625806
-4.565442
7.126944
-1.275097
1.191530
0.012472
1.863069
0.009257
1.271993
1.493709
0.742390
0.482317
0.217516
-0.042959
-0.267816
-0.254970
-1.073968
-1.878816
-1.689710
-3.324059
-2.291132
-3.414295
-4.741848
-0.012306
-5.635413
-1.224339
-5.302648
-0.016567
1.456395
3.161944
1.693646
-3.620304
1.860427
13.555828
54.405535
83.368976
100.197059
107.489638
109.585860
115.506806
125.462054
120.379006
112.604809
86.252875
69.395818
64.745566
52.189082
37.233820
29.809634
27.166505
27.270992
17.210585
12.190157
7.231591
7.160554
4.702742
9.262721
4.537319
11.099209
12.925815
-2.099898
3.993786
1.912105
5.555112
1.733580
-33.063213
-47.698547
-40.021121
-35.702724
-38.734894
-25.328287
-18.304225
-16.698112
-10.420548
-9.173391
-4.999941
-2.628341
-0.810657
-0.221953
-0.105356
0.603506
0.278262
-1.887667
-1.474989
-3.589184
-2.100103
-5.617530
-4.455364
-5.925672
-3.294142
-2.402009
-10.420743
-5.558814
-10.561613
-3.252526
-1.718710
0.021397
0.022339
35.605041
69.711354
88.971987
97.864552
105.196381
110.029714
101.401927
98.325404
92.652086
76.172913
63.708279
57.009711
34.614151
24.921153
19.829618
24.732891
9.929555
17.173462
0.028714
0.028492
-7.143161
-2.313290
-4.598398
-15.784931
-6.574237
0.025083
-8.230419
-5.906980
-9.450061
-1.772129
6.780009
-4.719965
0.017322
-1.321548
1.241475
4.460284
-0.973161
3.366430
2.753495
0.568415
2.143973
0.306801
0.368831
0.141584
-0.516736
-0.734360
-1.501188
-1.202844
-1.532194
-3.109604
-2.155096
-0.009699
-1.817326
-2.008623
-2.204703
-1.205096
-0.015249
-0.016286
4.361686
1.545658
-3.395530
-7.171927
-3.725518
7.679431
39.914200
70.294548
102.215463
102.096000
116.049665
112.497281
122.352682
122.544541
99.679991
90.919709
66.852084
66.787927
47.035416
32.296343
34.816304
32.203714
14.790663
17.110910
9.736760
12.071575
2.372514
-4.744177
2.283251
-4.557662
-11.115941
2.123517
4.116672
-0.023771
-3.878556
3.662940
-0.020463
-1.664524
-1.556282
1.402367
5.185986
3.594484
4.361158
1.904729
-0.815424
1.380101
2.834093
1.328396
0.628608
0.178526
0.227539
-0.224977
-0.844174
-2.556331
-1.565467
-2.520798
-4.938118
-6.485898
-5.748934
-0.903484
12.168685
28.160312
29.348539
30.289790
31.094731
24.462994
26.570576
24.635000
23.916841
17.199893
49.559797
82.573405
103.796621
111.509289
101.038538
99.582152
106.328514
104.030492
97.903092
68.935807
54.480453
47.144626
34.712954
22.304787
14.879586
14.851325
2.504354
-2.420129
-9.730267
0.028409
-9.570909
-7.037805
-20.767549
-6.756854
6.633200
-2.111226
-4.093696
-7.911701
-3.766574
-3.584321
-5.106271
-11.136507
-1.463226
1.381795
-2.472106
3.383852
-3.041287
0.010255
0.008453
1.182150
1.359204
0.685647
0.216426
0.080862
0.127867
0.483053
-0.276619
-0.004429
0.488597
-2.978548
-1.406036
-0.822640
-1.836456
-4.944390
-5.456700
-1.190664
1.273171
-5.550614
-0.017127
-3.180320
1.665458
-3.582045
3.691298
3.833089
23.853407
66.234002
91.565198
108.614424
107.120892
110.543285
118.239992
112.931133
102.611102
88.547082
66.787927
59.249718
47.351393
42.162097
34.783051
27.218748
24.575339
17.210585
2.412447
2.393655
-2.417408
2.318486
2.271506
-4.543315
-6.658601
4.244284
-0.024387
-6.028540
5.754016
-7.353132
-1.751118
-3.309446
3.053237
-4.281552
1.289614
-1.217123
-2.166444
2.834386
1.621146
2.654618
1.082340
0.860200
1.213540
-0.175593
0.170489
0.066593
-0.703054
0.292531
-1.187015
-1.009404
-3.118755
-2.915331
0.832406
-4.549161
-6.136800
-3.357356
-6.120263
-2.640340
-8.459213
-9.177050
-11.612847
-15.823900
-3.645072
-9.532134
11.954539
57.676950
70.299824
81.166975
87.478528
97.266823
111.605405
96.586432
87.946256
66.474741
49.530421
42.305150
22.389516
22.389516
12.427977
9.948414
7.433148
-7.325779
2.463923
7.270327
47.931148
68.532815
48.844757
52.358065
42.184385
40.977841
33.232037
18.047178
21.172309
12.756487
22.265294
9.721895
10.449112
6.903123
3.780287
-1.135742
0.012278
0.010504
-0.736258
2.451742
-0.473806
1.814131
0.233074
-0.104516
-0.000140
-0.141917
-0.002887
-1.081128
0.458060
-0.006671
0.674170
0.768131
-3.490592
0.958402
-0.012530
-0.013651
-1.284474
-0.016034
4.304857
1.533912
8.348123
7.015776
-5.541675
-5.777948
19.802737
65.701697
88.537011
102.431107
109.003576
114.793801
122.723447
109.981007
105.054714
78.705158
66.595454
44.472693
44.600980
34.716544
29.581645
36.948776
31.987582
7.309732
4.853986
-2.451084
4.750006
2.311439
13.808415
-0.026602
2.182243
-0.025256
-4.160720
-2.022926
3.800005
1.806399
6.920969
-3.290316
9.096471
2.807466
1.268473
3.558966
-0.012586
3.716465
3.176061
0.657727
1.655168
-0.430563
-0.003532
0.311941
-0.000505
-0.217736
-0.996595
-0.602839
-1.668582
-4.187073
-2.474750
-1.462702
-4.115349
-0.912774
-5.088494
-5.639553
-6.108538
-3.954375
-1.393548
-4.593537
-4.979844
-3.481511
-7.302388
-13.403229
5.960677
66.063642
82.526913
102.765373
107.772694
101.793745
111.494904
110.962007
102.895461
74.069260
66.855685
42.185192
34.811758
29.786455
29.842922
24.756424
9.929555
-7.353874
2.466301
-4.818037
4.818444
-9.439672
-11.513598
-13.638898
-11.056337
-6.419714
-12.456578
-11.992096
-7.630480
-5.436388
-5.176509
-11.333613
-5.971272
-8.290310
-3.743662
-2.289853
-6.221252
0.010393
-3.728436
-1.205678
-2.450450
-1.887667
-0.234581
-0.323093
-0.095371
-3.253678
-6.965792
-11.262798
-15.224546
-15.347034
-18.236643
-17.058724
-20.186043
-13.556949
-13.857716
-13.906310
-17.753941
-17.755199
-4.331671
-4.696820
-1.703010
1.750023
-1.852144
3.800005
15.856553
67.912570
97.080650
97.964370
107.234972
110.657364
131.500501
120.260172
109.514754
83.303079
68.930074
56.834607
47.125695
39.680143
39.528112
34.483770
7.359458
17.144135
4.839807
4.797269
-0.028143
-7.059550
-4.624616
-9.098428
-4.418971
2.111772
2.036604
7.954374
-0.022593
-7.295910
-0.020407
8.110960
3.024879
2.807466
-1.303717
-0.014044
4.256870
0.923166
1.592788
3.985934
-0.006419
-0.420942
0.866654
0.490157
0.025839
-0.245831
-0.806169
-1.524203
-0.845844
-2.638044
-1.261756
-5.876924
-1.654302
-5.545641
-4.105835
-5.651277
-1.217032
-5.324462
-5.680676
-3.065599
-1.653677
-3.500203
-1.813936
-7.630480
11.996932
51.558650
78.992083
83.181381
99.000624
98.672264
106.751712
108.656103
81.162931
68.935807
61.964443
54.739144
39.893499
19.942607
12.463317
14.893717
17.354756
4.946116
0.028797
-7.241494
-2.364387
-14.145606
-4.607744
-9.055336
-15.456420
-8.586633
-4.117062
-5.991265
-9.602481
-7.283640
-3.444125
-6.439975
-6.055639
-1.377290
-2.523511
1.174882
-2.102926
0.913269
0.009008
0.007400
0.508957
0.004518
0.003021
0.241159
-0.000000
0.122149
-0.238133
-0.004065
-0.918228
1.124877
0.657727
2.273192
0.855045
-0.011297
1.033570
6.833030
3.750766
4.049123
-0.016903
4.631628
3.303735
1.747674
-0.021724
5.704290
29.644534
72.113060
88.537011
95.786717
109.236490
119.386556
129.543840
113.154538
107.498630
29.382154
2.438287
-17.268972
-32.015036
-32.138766
-49.475886
-24.657470
-29.525924
-29.411704
-26.727434
-31.427321
-33.276148
-16.368852
-13.777046
-15.768772
-6.622803
-4.289845
-4.146372
3.970154
-3.849861
-3.677694
3.445527
-3.271187
-3.055977
-0.016623
-2.611210
7.117740
2.145774
-0.938099
3.948757
0.655378
3.231454
1.687579
1.147174
0.939542
0.120763
-0.231784
-0.597019
-1.218627
-1.236181
-0.513290
-1.882367
-1.448682
0.009811
-4.596060
-3.034263
-6.727960
-4.902630
-3.940328
-4.214254
-9.233351
-8.301046
0.020759
-5.485554
-11.513538
15.987983
55.808307
76.857749
96.104054
94.600625
99.379955
106.857511
99.192981
102.796713
81.318119
49.436346
47.144626
37.296329
19.961439
17.470125
12.451537
17.371237
4.950845
0.028824
-2.394581
-7.150185
-16.458377
-4.607744
-15.834207
-6.623403
-10.728047
-14.487314
-12.048397
-9.579032
-9.145221
-3.453472
-8.160351
0.017849
-6.999611
-3.820924
-1.147355
1.070237
1.834697
1.532067
3.787017
-0.506323
0.401933
0.534332
0.135563
0.033100
-0.001149
-0.439984
-1.667987
0.432220
1.091792
-3.901591
2.266088
-0.856316
0.934911
-5.254159
-4.596900
-0.014773
-1.356635
-0.016707
-6.199139
-9.975496
-1.779982
-5.534515
1.876870
25.596241
65.473566
89.235725
101.425786
114.302178
119.139379
114.942873
107.589690
104.339361
80.930452
66.531297
51.889719
42.121711
32.172838
27.140383
17.227198
19.635540
17.061073
9.660914
7.196072
2.349024
-2.362085
-0.027022
-4.524185
-0.025873
6.372040
-0.024275
1.963784
-0.022453
-3.663346
8.620860
-3.280751
-21.251434
-37.757557
-41.093994
-26.860019
-26.459312
-20.355348
-14.824163
-9.635438
-5.863805
-1.592702
-1.115845
-0.151539
-0.062172
-0.085935
-0.996595
0.003797
-2.603917
-2.673218
-0.636387
-2.980949
-3.365285
-2.809503
-5.147118
-7.999231
-4.930752
-6.647872
-2.822594
-4.579490
-6.655578
-3.514223
-3.663764
-7.696098
13.926656
60.213408
77.027039
81.514958
106.301385
104.529922
104.483417
96.680479
81.395712
74.139802
52.005591
32.419247
27.436000
29.927623
22.431880
29.899390
9.976704
-2.436387
4.917744
-7.255541
-11.982584
-7.058876
-18.550801
-6.791973
-11.032888
-8.558511
-12.428428
-7.967945
-5.759481
-12.779059
-6.927426
-6.524341
-7.492046
-2.771189
-2.528184
-3.483783
-4.162080
-0.894194
-3.046567
0.007428
0.005959
0.780219
-0.758566
0.255344
0.002378
0.348082
-0.002635
-0.336753
-1.353200
-2.241227
-2.026220
-3.090032
0.857394
4.766968
-2.109054
-0.013623
1.244983
-2.725989
-1.450445
-4.668181
-3.362053
-3.534221
1.822842
5.711394
23.796410
61.593891
85.080084
97.429630
105.447072
112.963108
105.878522
115.220555
99.777430
83.303079
71.530527
54.309891
42.040941
39.566120
36.984407
22.221924
17.160748
12.166440
2.396004
2.377212
7.132139
-0.027639
4.565677
-6.765998
-4.433319
-6.408009
-2.080655
-9.984093
5.675875
-1.844928
3.412442
-1.642876
1.482234
5.584179
2.547515
4.692986
4.199985
2.734934
3.090734
3.249127
2.095252
0.779852
1.551667
0.839893
0.085496
-0.619310
-1.323072
-0.327484
-2.192508
-3.251378
-2.605987
-3.787059
-7.711246
-4.760205
-6.277553
-6.840562
-8.787657
-8.036956
-11.453430
-10.857273
-20.090831
0.020898
33.318867
42.425424
71.948333
108.316202
140.574538
136.283510
151.052207
146.775378
147.506858
140.582731
129.961290
93.992280
79.306468
49.953758
42.305150
37.402185
27.384234
12.427977
2.511489
0.029018
-14.694540
-19.358174
-14.384885
-7.058876
-16.244845
-11.290830
-13.301092
-8.558511
-4.140428
-5.998289
-9.614206
-3.631052
-1.723355
-3.257199
-10.643741
-5.586936
-3.849019
-4.668279
-1.052129
-1.817863
-1.560838
-3.247726
-1.545227
-1.584215
-0.260129
0.288445
-0.046870
0.101008
-0.002467
0.321816
0.432220
0.537926
-0.656669
-0.764911
2.536029
-1.893845
-3.135986
1.129880
-3.751728
-5.359871
1.409414
1.519818
-0.019594
5.207030
3.639308
1.881568
23.653916
69.486565
96.862001
104.725217
109.120033
115.269137
112.482641
105.198076
99.387675
85.587472
63.942425
44.472693
37.020037
32.111086
41.839015
26.957532
22.008251
12.166440
-0.028676
12.000427
9.461817
-7.030910
-6.916354
8.949855
-4.409406
4.220652
-0.024079
3.941796
-0.022453
-0.021416
5.143096
4.844740
6.020295
-0.016398
-0.015025
3.480825
1.038268
4.600954
1.531345
-0.007596
1.555716
-0.004597
0.767202
0.664055
0.014179
-0.673447
-0.420585
-0.976302
-1.771696
-1.636535
-5.873223
-5.289019
-6.778177
-3.768369
-6.207176
-4.555790
-11.239406
-8.036956
-5.727547
-6.224372
-3.327296
-3.528242
-16.542208
-13.468932
12.025193
54.048098
78.818091
87.651952
90.285272
104.741521
109.664205
104.333787
100.542546
69.265013
54.635668
39.818228
34.943496
29.984091
10.042712
5.002859
7.468544
0.029018
-4.860096
-16.983994
-19.226741
-16.540505
-2.292387
25.054762
66.591791
49.545442
56.252742
46.191929
42.321947
34.900429
17.414215
27.670287
18.210676
12.688098
11.565445
10.612249
3.164397
2.732567
1.541524
0.642142
-0.508645
-1.179991
0.807027
0.001497
-0.018693
0.207960
0.434826
-0.003952
-0.005214
1.091792
-0.668696
-3.848284
-0.010007
-0.011100
-3.171785
3.438202
2.490799
5.337679
-0.016931
-0.018304
3.327367
-0.020771
1.804050
-0.022481
19.873970
69.809758
87.110374
115.006883
116.049665
115.031469
117.883489
117.621380
99.777430
61.244560
61.422770
51.690143
29.610144
36.984407
36.984407
22.157822
22.157822
12.142724
4.811449
-0.028368
2.341977
-2.364490
-0.027022
-2.277896
2.161102
-0.025088
-8.259160
-0.023406
1.879219
10.847435
5.128889
6.437449
1.489281
-2.788160
-0.015053
-0.013875
-0.012474
0.899676
4.612295
2.540849
2.076291
2.377325
1.328110
0.587808
0.021311
-0.356214
0.002522
0.003880
-2.169059
0.549388
-2.559117
-1.481395
-5.913189
0.011169
-5.170567
-3.406522
-3.715567
-6.683046
0.016796
0.018320
-11.694975
-10.640874
-16.542208
-17.366150
13.943137
56.062270
91.898656
85.461203
95.193114
111.948181
106.751712
101.710485
81.395712
69.199172
64.747665
59.712989
32.449831
24.968218
29.814689
22.410698
2.504354
-7.353874
2.475814
-7.234470
-4.761959
-2.329548
-11.572221
-4.523627
-15.423569
-2.120516
-12.442503
-5.984241
-5.752457
-1.802323
-8.652786
-1.604903
-1.500387
-5.596310
-10.139102
-3.497831
-5.252639
-5.433039
-3.822233
-1.257082
-1.531179
-3.116835
-0.532741
-0.691754
-0.014020
0.533616
-0.665860
2.021438
-0.005242
-1.653911
-0.007737
-11.419778
-26.392705
-27.656262
-33.255695
-32.163397
-32.649660
-30.798759
-22.876381
-24.703447
-23.383239
-24.682308
-18.302698
-13.418458
11.886625
61.593891
86.915496
100.251077
113.453699
107.904525
110.697085
110.636958
92.655127
78.553071
68.930074
61.719785
46.899998
34.550277
24.622828
12.320596
29.382154
14.577131
7.288421
4.773638
-0.027947
2.316137
2.271506
4.461697
-0.025873
8.447374
2.029556
-2.008493
-0.022453
-0.021332
-5.198005
-11.301509
4.510865
-2.807290
7.615981
5.846058
-0.012306
2.678104
5.299398
2.550330
3.089099
1.172114
-0.003140
0.987474
0.035519
-0.214966
-0.667257
-0.332129
-0.434323
-1.629512
-2.605987
-2.247602
-4.244320
-0.924387
1.048832
-4.555790
-7.473947
-1.316903
-2.827267
-4.614608
-10.049714
-10.584573
-9.192119
-11.513538
12.039323
60.008833
85.394820
89.842428
97.357982
99.784349
109.123455
116.010816
85.586593
79.080738
59.430792
47.278686
44.876746
27.384234
22.474244
19.904944
7.475623
12.357297
-4.874115
-9.702145
-7.192327
-7.037805
-9.224069
-11.302555
-4.411471
-4.257257
-12.456578
0.023697
-5.745433
-3.631052
-5.204604
-4.860440
1.550654
2.813517
0.015105
1.186774
-2.102926
-3.618385
1.565167
-1.917486
0.006070
0.004739
0.271127
0.001718
0.049554
0.189055
-0.829731
-0.003784
0.432220
-0.546022
-0.007653
-0.008830
-1.688200
-1.898627
-3.135986
-0.013483
1.235586
-2.682947
-0.016791
1.524516
-1.674145
-0.020771
-3.672911
7.622546
21.654839
67.912570
82.581882
99.267152
114.180967
117.332458
119.393049
128.984687
106.871206
92.745434
22.136455
-4.968951
-37.042906
-32.076901
-32.107834
-29.583034
-24.467065
-26.858322
-41.128713
-26.387124
-28.440832
-23.300833
-9.184263
-2.270680
-0.025901
-2.138384
-0.024107
-7.953972
1.865125
1.785258
5.107577
-1.630849
9.053765
-0.016286
2.528610
8.123529
2.079604
4.506089
3.005407
3.786637
1.555716
1.165011
1.760929
0.768716
0.000028
-0.104516
0.444488
-1.653174
-0.887902
-3.843573
-0.643355
-4.546299
-4.279494
-2.802479
-12.482802
-4.565164
-2.486126
-10.664833
-5.718173
-12.392236
-8.324496
-12.368421
-3.673111
-7.705472
13.992581
66.439859
78.992083
85.369507
90.661461
97.661815
107.069110
111.610907
98.185234
71.601448
54.583930
39.893499
39.893499
19.999102
27.410117
14.964370
12.439757
-14.807142
0.028908
-2.399226
2.425870
-9.430298
-9.224069
-9.083458
-11.068062
-6.412690
-4.126408
-10.036293
-5.731386
-3.626379
-6.908677
-4.881511
-1.502710
-5.615058
-6.389930
-3.532950
-1.049806
-2.753313
-1.542146
-2.549743
-1.566298
0.401933
0.280640
0.145077
-0.056078
-0.500396
-0.615742
-0.322321
-0.428158
-1.603792
-2.575027
-0.757695
0.826856
-1.884280
-0.012110
-0.013399
4.939486
2.651496
-4.260073
-3.089454
-1.681362
-3.524656
1.811097
-0.022481
29.608904
55.367897
90.952038
106.441526
111.466444
102.883978
108.122481
117.621380
89.688688
80.930452
59.192692
46.674300
39.414088
22.157822
29.524648
34.350757
17.127523
12.142724
7.252902
9.575587
7.082413
9.291163
-6.873395
2.212780
4.357717
-2.143195
4.064681
-2.001277
5.675875
10.818964
6.816680
1.592638
4.475346
5.498852
2.523884
6.932678
3.118535
1.791296
6.000803
-1.267346
-7.565603
-9.572920
-5.826995
-2.972956
0.176369
2.420013
5.070355
5.494765
5.933334
3.955500
6.730359
10.001032
4.346847
6.740831
5.289253
1.172504
-2.495472
-1.333161
-5.746295
-6.233746
-3.350662
-1.755871
-11.077206
-3.836672
8.071889
56.252742
77.196329
98.922547
99.931664
111.722479
109.880506
94.355771
91.084483
59.430792
57.334245
49.906721
29.899390
27.461883
17.437162
0.029351
4.993402
-4.892808
-4.864769
-4.827383
-7.164232
2.387817
-4.603071
-4.518954
-4.416145
-12.906986
-8.314785
-9.977670
-9.590757
-9.110047
-8.641061
-4.867464
0.017877
-5.615058
-1.256516
-3.518902
-3.139619
-1.799170
-2.310816
-2.530994
1.550342
-0.397161
-0.267097
0.001663
0.000166
0.203234
0.667750
-1.016690
-2.192211
0.544974
-1.339082
2.244777
-0.010091
1.881097
-0.012362
5.751193
2.490799
-2.711641
2.840551
1.526865
4.993918
1.738278
-0.021556
3.790552
19.826482
63.500589
95.718462
95.473005
109.818774
119.139379
115.292244
115.220555
102.511285
78.324940
68.663935
56.779958
44.216120
32.111086
14.762192
24.527851
19.616550
9.698837
7.245798
7.188969
4.731100
4.631846
-0.027134
2.210431
8.731797
2.090631
2.024858
-0.023294
1.872172
3.587318
5.128889
3.176123
4.454035
4.098849
7.544804
-1.166610
1.024174
3.555292
0.744641
2.483964
2.502065
0.742041
0.738787
0.557332
-0.084366
-0.633131
-1.184189
-0.355355
-2.786895
-2.860813
-2.699727
-3.916030
-2.584743
-4.760205
-6.333853
-2.313219
-7.558398
-6.741669
-11.622415
-10.972252
-11.793528
-10.626799
-16.647842
-17.429530
14.058506
91.759199
141.505495
163.351873
169.966650
163.409664
155.254185
160.434958
137.710941
103.981689
87.232489
64.931087
45.003755
29.984091
22.495426
14.992632
9.948414
4.941387
0.028852
-4.832057
-7.171256
-11.783265
-6.925424
-6.791973
-8.849106
-15.012931
-6.209001
-7.986694
1.938318
-5.478530
-3.448799
-3.247852
-9.022222
-8.388837
-7.685075
-2.322565
-4.237072
-0.908129
-3.845682
-1.280448
-1.538203
-1.621711
-0.260129
0.140320
-0.002323
-0.101026
0.425374
0.638060
-0.005158
0.530879
1.304479
1.502987
0.843300
4.707677
1.031221
-0.013399
1.235586
-1.356635
8.555523
4.631628
-1.681362
7.034738
5.498282
-3.849861
29.751425
80.264770
84.985023
104.382978
114.059755
117.211247
112.710800
112.931133
107.080348
88.119318
61.600979
46.854858
34.550277
41.960171
29.524648
29.524648
12.213873
21.858681
7.217383
-2.429435
4.707468
-2.362085
-2.316382
11.194074
-10.949142
-6.408009
-0.024135
5.903195
7.594104
5.413038
1.688948
3.190302
-3.003370
-0.016286
-0.014744
4.636101
2.060699
1.772390
-0.008830
0.617793
2.466491
-1.138406
1.209529
0.592906
-0.032851
-0.351188
-1.184189
-1.377986
-1.799818
-0.555097
-1.973676
-4.574450
-2.549624
-6.685189
-7.375061
-1.138065
-5.005745
-6.729944
0.016907
-4.642703
-8.418293
-12.450549
-3.673111
-13.534634
18.025996
62.500347
83.443879
92.724412
102.202332
102.207540
100.031768
101.907980
91.084483
69.199172
59.825868
49.765608
27.461883
22.453062
5.002859
14.950240
9.920125
4.936659
-2.417806
-16.951143
-11.959134
-14.173756
-6.911377
-11.326004
-13.258867
-12.822534
-14.569442
-17.957697
-1.892903
12.838893
39.917615
40.682538
45.570230
35.215087
30.872406
24.842177
19.051449
13.796466
11.644076
4.598269
4.274761
0.404312
0.275883
0.474306
0.037829
-0.683425
-1.271947
-1.943650
-0.879968
-0.550832
0.641283
0.739942
3.318273
-0.950126
-0.012222
4.579216
2.476620
6.640552
4.283546
4.603213
4.972607
-0.020715
1.808748
3.809457
29.644534
73.660906
90.747652
108.614424
108.887119
119.139379
115.525158
113.042836
89.776618
75.876573
56.452066
41.879400
36.877515
39.490104
29.496149
22.050986
14.676779
12.154582
4.806722
-0.028199
4.707468
-7.016591
-0.026854
2.208082
-0.025817
-2.123952
6.087891
11.758506
-3.787690
-1.820874
1.674854
3.185576
4.482450
4.113056
3.743662
2.301744
-0.012081
2.656793
3.735311
3.715460
0.973633
-0.004317
-0.240538
0.533616
-0.014020
-0.515573
-0.928031
-0.696302
-2.321479
-2.813914
-5.351193
-1.532799
-2.591766
0.972726
-5.276089
-2.294526
-10.082773
-2.691745
-5.746295
-4.670798
-10.106015
-8.863829
-1.832516
-13.501783
20.096945
68.903139
92.404149
86.194776
107.295889
97.958059
102.412913
101.907980
86.327246
79.080738
52.252531
47.412747
27.487766
12.510438
24.968218
12.498658
7.482702
2.499597
0.028908
2.459166
-14.342659
-9.402176
-6.918401
-4.504935
-13.329243
2.173770
-6.216025
-10.001119
-1.895226
-3.645072
-8.652786
-8.090003
-1.498065
-2.766516
-3.813900
-7.023540
-4.152706
-2.711170
-1.528126
-2.577865
-0.510968
0.004767
0.003021
0.955912
-0.004673
0.521758
0.225506
0.661692
0.443965
-0.565265
2.616695
0.763433
-13.779118
-24.549082
-25.173194
-34.459774
-32.711497
-34.875774
-27.298153
-24.817638
-26.758895
-19.319144
-18.374100
-17.245754
11.872390
53.501584
86.720618
87.361561
109.585860
105.935980
101.375755
105.720929
102.411469
83.141483
59.192692
54.362163
44.429931
36.841885
39.566120
31.925830
26.905289
17.011235
16.944785
7.167657
11.822555
-0.027415
4.537319
2.212780
6.542530
-0.025088
8.162951
5.888987
3.729109
-0.021164
5.064955
3.166670
-0.017464
-6.862574
2.471893
1.136927
2.022888
2.614170
1.465176
1.839864
1.981483
0.732588
0.703269
0.417154
-0.140752
-0.123097
-1.003024
-2.513106
-2.356653
-1.741892
-3.388421
-2.317840
-0.854710
-3.862110
-4.274568
1.186774
-6.319582
-6.812017
-7.234104
-6.261868
-10.162316
-5.331032
-3.691803
0.022810
20.096945
56.252742
77.196329
88.498376
84.037832
105.058919
109.664205
106.655845
93.277510
66.792194
54.687406
44.876746
34.910561
27.539532
19.999102
7.511019
9.967274
-9.852130
0.028880
-2.406194
-4.775979
-11.783265
-11.537047
-11.372902
-8.839732
0.025304
-6.194954
-3.990886
-3.808633
-5.485554
-5.176509
1.638651
-3.000174
-4.214254
-2.528184
-9.406833
-3.160691
-2.711170
-3.845682
-1.910462
-0.515613
-0.789766
-1.096764
0.147455
-0.065618
-0.001121
0.211412
-0.003756
-0.875186
2.656221
-1.954622
-2.262493
-1.707330
2.791764
4.152581
-3.451017
-4.987922
1.313104
1.409414
-7.803796
-1.688578
3.506969
-0.021612
5.739809
21.707082
61.736469
97.080650
108.614424
107.577211
123.209254
113.053039
112.819431
106.766635
87.777107
68.597400
44.344407
51.839825
36.913146
39.338073
29.439151
17.011235
9.698837
-33.775790
-69.451011
-68.623392
-67.244027
-56.842926
-49.030748
-41.308795
-35.830914
-36.652690
-21.518071
-11.304610
-5.398479
-8.518647
-0.018809
1.475187
4.098849
-1.270041
-0.013623
1.012429
3.517369
-1.506467
1.238310
-0.005746
1.101077
0.689061
0.557332
-0.035119
-0.400354
-0.241548
-1.074635
-2.321479
-3.448431
-2.680979
-1.551492
-1.729072
-5.728619
-7.440763
-3.504855
-6.284408
-1.333161
-5.765043
-14.091511
-8.453467
-1.758194
0.021868
-5.766505
16.119803
56.189251
72.829178
88.404329
95.193114
100.593138
114.318051
99.482173
90.910491
66.665213
59.543671
52.450083
27.513649
24.991751
22.453062
7.496861
9.967274
0.029018
0.028935
4.884644
-11.970859
-4.696535
-2.290065
-2.248258
-2.190194
0.025332
-4.131081
-7.977319
-3.822652
-3.654418
-5.176509
0.019262
0.017821
-5.568188
-1.268129
-1.156645
-1.056774
-3.627759
-0.766452
-1.280448
0.006097
-1.208086
0.835344
0.001857
-0.042059
0.284149
0.618024
-0.003784
-0.005074
-1.625272
0.636585
-1.506467
-0.853910
-3.776706
-3.121667
-3.465337
-0.014632
-1.349419
-4.288712
4.603213
-3.352488
-0.020659
-0.021556
1.888615
27.600318
71.780358
80.192741
97.964370
104.888560
112.497281
115.059331
106.034641
92.474513
73.142746
66.210510
49.132480
34.483770
34.550277
29.467650
19.635540
12.213873
-2.453489
7.238695
-2.419814
7.075309
-2.357274
-4.591139
2.210431
-0.025733
4.187567
6.059476
3.918164
1.865125
10.762022
6.769276
3.171397
4.411413
2.712939
2.481346
5.715618
6.092785
3.498407
2.195051
6.078538
2.904038
1.790577
0.653543
-1.432307
0.594978
3.682459
7.174447
8.174655
12.472638
12.934580
8.961169
8.619045
7.080661
6.773794
3.249348
1.186774
1.286662
-1.342452
-1.440000
-6.299364
-3.383374
-10.725325
-18.617260
-9.719728
18.110725
56.506704
83.994058
86.469866
91.131696
100.492039
100.130516
97.150715
86.409541
64.380823
57.388333
40.006405
30.012324
25.015284
7.518098
7.511019
7.475623
4.955573
9.825827
-12.099830
-9.561535
-14.159681
-4.607744
0.026829
-8.830358
-19.288679
6.229686
-9.965945
-5.724362
-9.074873
-5.183533
-8.136901
-10.528762
-5.568188
-5.099485
-3.483783
-9.401383
0.920404
-3.046567
1.911381
0.520849
0.803862
-0.518722
-0.247678
0.000222
0.105706
1.079090
0.987418
-0.005214
0.542624
-0.661480
1.512440
-0.870748
-1.922539
-0.012446
-0.013539
1.247332
1.327198
4.276442
-1.580336
-6.704607
-1.787198
-0.021696
-1.948359
33.721600
64.089921
95.397618
104.497058
112.179449
112.963108
114.942873
112.596026
99.290236
78.477027
56.616012
51.839825
41.960171
32.049334
19.673520
14.762192
4.877618
12.095292
12.107150
-0.028228
7.061102
-0.027527
-4.591139
-4.495490
8.655951
4.197020
-0.023995
-3.959857
3.733835
3.549507
-5.090608
-0.018753
-2.974675
2.689307
-0.014716
2.245028
-0.011997
1.720400
3.616729
1.172141
2.371626
1.044247
1.594803
0.193781
-0.091309
-0.289736
-0.250839
-2.195736
-3.317956
-1.734868
-2.737224
-4.757428
-5.320437
-1.934692
-4.302691
-9.425609
-1.261161
-4.087827
-13.119682
-9.543006
-6.777441
-5.345079
-14.870683
-3.883403
16.082140
58.532887
66.623964
82.123927
93.023544
97.859311
98.132609
128.839860
145.225487
141.643715
132.328754
110.276557
97.473454
80.209388
67.236629
57.442422
49.624496
37.049334
39.216062
7.319881
9.627802
-4.701208
-2.290065
-4.504935
-13.301092
-8.567885
-12.428428
-13.978123
-9.567308
-3.635725
-8.641061
1.645786
-10.578039
-2.752496
-6.389930
-2.341258
-3.153667
0.010671
-0.757161
-2.540368
-2.043544
0.004656
-0.807732
-0.139355
0.014270
-0.400560
-0.214079
-0.003812
0.855474
0.530879
0.636585
0.746990
-3.395221
-0.011213
-2.094707
-3.436698
-0.014801
-2.706859
-0.016903
-6.208676
-1.693389
-5.305402
3.629855
-1.938737
31.660497
74.259775
93.172451
97.750474
111.704113
121.179213
112.824880
112.260919
99.485113
83.060684
54.205349
51.440673
44.344407
31.925830
24.646572
12.273164
14.619837
9.651433
7.196072
-0.028059
7.061102
-0.027387
2.245667
2.205733
-2.193708
2.081235
2.013113
-5.892504
3.738562
-3.601175
1.674854
1.569148
-1.500958
1.341293
3.750766
1.120484
4.038812
4.375650
2.195051
-0.615778
0.472154
0.357052
0.703269
0.093961
0.037829
-0.275717
0.999556
-1.499849
-1.893559
-0.578323
-0.680516
-3.112186
-3.496522
-3.824614
-5.299538
-7.023540
1.289041
1.379416
-10.167401
1.595842
-8.465191
-12.499826
-5.562816
-3.850691
22.259396
54.414941
83.627272
99.451545
102.308132
107.825654
105.104111
106.966191
86.244952
59.600110
59.656549
44.961419
25.038817
22.495426
17.503087
14.950240
2.506732
-2.436387
-9.777138
-7.227446
-9.570909
0.027799
-4.612418
-15.817782
-8.867855
-10.681149
-10.364583
-16.034802
-13.386804
-12.746208
5.231520
31.057360
34.995525
43.371180
30.815966
24.694013
18.153628
19.310718
13.844053
8.288317
2.603396
1.196383
2.478310
-0.146323
-0.016258
0.333875
-0.002495
0.652240
-1.745296
1.633856
-0.651858
-0.008914
-1.697765
3.725946
-2.085142
3.423995
2.486073
-0.015726
-0.016931
-0.018164
-6.714144
5.242548
-0.021556
-0.022593
29.715795
73.660906
95.397618
106.208613
102.874878
108.016228
117.764655
95.822039
99.192797
77.868678
73.499192
39.262057
36.948776
24.694061
34.450517
29.439151
26.826924
7.267110
7.188969
7.139243
9.414413
-2.352463
-2.299545
8.864528
4.343538
2.085933
6.080788
-1.986845
-7.496189
1.764117
-1.712632
-1.601984
1.461093
-0.016034
1.223841
-0.013371
-0.011773
1.734579
-1.477773
3.035681
-0.490698
-0.004149
1.114664
0.262838
-0.164145
-0.280390
-1.049894
-2.223886
-1.432846
-2.954610
-2.043913
-2.359982
-2.633909
-5.855296
1.091642
-10.584478
-8.935486
-1.347097
-7.292727
-3.126350
-11.908507
-12.483400
-9.309365
-1.918452
22.233513
