50.311173
-9.566450
7.698398
3.005580
1.012987
-0.020931
-0.626160
-0.274018
-1.499319
-2.430975
2.169951
17.791494
31.100541
44.948236
59.652269
71.031646
82.524086
77.479097
90.044400
107.193682
121.092396
118.376037
111.839072
103.281330
105.688790
109.982002
102.962121
99.315907
97.340491
100.012986
90.591401
89.762923
74.981857
74.789542
65.319301
63.999084
59.217772
56.604122
51.637093
39.542030
36.814180
25.117700
27.062643
19.774354
12.807983
8.024389
9.681403
-2.385400
-2.295983
4.861892
15.649629
9.970432
14.797437
12.001108
11.610297
12.838832
10.510379
10.594428
9.560437
7.609328
4.194886
1.299688
-1.141140
-4.981412
-6.303439
-8.208667
-11.170021
-13.557610
-15.432558
-18.502216
-16.041564
-15.328482
-11.264373
-14.981092
-13.897563
-15.708620
-15.329987
-18.611804
-6.399352
-8.360124
-10.228814
-4.325512
40.636682
101.620920
147.950974
159.653595
159.190648
145.298274
112.665778
95.516506
94.593812
87.392877
86.350430
109.101201
116.813487
125.302255
108.391783
93.504905
85.599557
70.055872
50.394667
57.536006
47.307068
45.673149
35.481097
37.792886
31.945598
34.700173
22.197637
14.654466
5.115442
-1.741980
7.049082
0.482862
6.586847
0.449072
-1.460243
-1.392111
-1.320295
0.366234
3.392570
1.711763
-2.253430
-3.293739
2.318433
2.904376
3.279258
0.794328
0.647773
-1.150824
-1.008038
0.033789
0.041035
0.074295
-0.043441
2.281274
-0.952367
-0.646106
-1.418085
-0.902818
-1.868105
-4.911060
-2.339055
-3.684449
-6.482599
-5.659681
5.429305
52.500103
106.279399
121.605943
127.096782
131.137038
137.593975
139.237073
141.785478
131.658321
123.860425
126.175573
125.533563
120.150282
112.214077
87.781850
66.262313
63.121405
51.362962
48.565106
38.888218
33.730232
24.048110
18.907198
18.852448
6.625711
6.599676
-2.841135
-7.255181
-9.313651
-8.956197
-10.742944
-10.325504
3.332531
-0.408130
4.653618
-0.354499
-7.599866
4.995315
2.092713
4.012195
3.507349
2.940505
2.417945
3.307576
1.725620
1.328235
1.239443
-0.068864
-0.904919
-1.501241
-1.696625
-2.685707
-5.526410
-5.062968
-7.391865
-5.720379
-8.163395
-5.881010
-8.605191
-3.306967
-13.931730
-5.202197
-1.119581
-7.378612
0.380948
0.404928
33.711134
73.344335
105.425700
123.457949
125.506783
128.050839
120.476080
122.546560
125.652281
122.490595
116.468225
101.039568
87.007661
67.314109
52.480819
45.325163
45.107672
32.829468
35.209471
20.322593
12.850724
17.611176
5.365365
-1.843258
5.221792
-1.778808
-44.303024
-60.704634
-62.732071
-52.766071
-48.767821
-25.929082
-23.040696
-13.352883
-9.269133
-4.146936
-1.068021
-2.249202
2.594944
-0.802857
1.983430
1.685650
0.145512
0.636049
0.483632
0.063764
0.313733
0.008793
-0.214544
-0.253827
-1.038620
-1.817056
-0.657643
-0.148021
-3.157506
-6.144635
-5.864923
-4.408594
-2.569298
-1.540270
-1.644109
-4.654839
-11.338718
-8.839908
-3.961219
21.672229
72.910200
94.236828
112.254879
121.584027
122.716486
107.918340
108.405302
108.559595
110.601805
82.398198
75.801188
60.962893
48.890112
48.750824
31.641069
26.610092
19.162701
16.617387
23.749804
-2.991124
6.658254
-10.058346
-5.180458
-11.982987
-4.965914
-0.495548
-10.927109
1.551139
-4.264721
-2.244064
-5.610067
-6.851193
-1.851786
3.872591
3.482078
0.877046
2.844239
0.684965
-1.669259
-0.735522
-0.106189
1.992353
0.177584
0.542137
0.008175
-0.429906
-0.200714
-0.651085
-0.370125
-1.600572
-1.865129
-2.156142
-5.013320
-3.636137
-1.851786
-3.214372
-7.285841
-7.864301
-9.582443
-5.760218
0.375498
-3.082083
-3.246968
22.994147
67.140110
98.054277
112.157703
123.180684
124.919293
124.806487
116.743633
100.769628
109.331322
96.231804
77.053724
62.369781
52.582133
37.756547
37.720207
35.039705
35.209471
20.263687
17.593928
7.873400
-4.270101
2.916445
0.533546
0.522101
2.758166
4.865519
2.599887
0.467057
2.412296
6.093796
-6.822258
0.389123
1.975562
0.339529
-1.053290
-4.779181
5.988687
6.376030
3.773669
0.169492
0.788466
1.640934
1.248034
1.109903
0.167073
0.086245
-0.552494
-0.481416
-1.380168
-2.735014
-2.283731
-4.036705
-3.147577
7.435981
15.990104
28.290361
30.138504
32.559267
23.954671
17.138752
10.717817
6.412426
4.946503
16.210850
59.325811
86.076980
108.201284
115.790466
112.072525
113.137619
108.405302
104.330093
91.182100
87.865852
68.150264
58.613736
41.511255
39.221546
26.685976
21.731191
9.308646
6.807950
-3.011315
-0.554542
-7.793444
-10.048416
-0.532017
1.766776
-0.511637
-4.835095
-8.866834
-8.529239
-10.165895
-13.341666
6.616136
1.273891
-3.432708
-1.750831
-2.888498
-0.266545
-0.241875
-0.210769
0.607046
0.492885
1.438391
1.086929
-0.334591
0.694730
0.058577
-0.592233
-1.294649
-0.899495
-1.665063
-1.501363
0.146057
-2.063547
-2.334718
-5.357641
-0.799175
-0.876514
-0.952012
-3.690575
-6.695407
-2.671984
-6.129232
0.396208
2.233499
6.062981
49.366043
88.972028
111.141552
123.317247
126.185090
115.889305
112.440174
114.511743
109.870964
91.147676
74.442218
64.841792
50.008501
47.582376
42.591856
32.734768
32.734768
25.188924
20.224416
5.418540
12.576243
0.541721
-6.461813
2.805064
-3.953014
7.033674
-7.956301
8.596701
2.403503
-9.018303
5.801047
-1.307405
-1.233749
-2.608567
5.771494
0.285030
-0.893087
1.248649
1.081576
-0.572680
3.268825
-0.875159
0.845484
0.808911
0.494411
-0.000000
-0.356315
-0.933351
-0.077765
-1.417679
1.523002
-2.115147
-1.684957
-1.049922
-4.021352
-3.411527
-7.283621
-6.654487
-5.709328
-7.624421
-11.423589
-12.255321
-9.318737
-4.123436
32.452821
68.361161
93.886772
105.252714
103.243145
99.293468
105.031226
108.989534
103.352640
87.445843
65.633638
43.944720
29.108236
26.660681
41.432486
73.757512
80.805058
82.953335
65.759373
50.533740
28.334228
11.339791
6.515065
10.958810
-0.512710
1.683420
-6.792730
-4.542059
-4.374609
-6.011869
-0.401694
-7.079566
-8.078694
8.254033
-6.838651
-6.200213
-4.567462
-2.077416
-0.181272
1.854939
1.496968
0.744723
-0.068111
0.123221
-0.009117
0.096726
-0.720027
-0.235701
-0.744097
-0.403270
0.765017
0.165132
0.189112
-2.559592
-4.873528
-4.230160
3.928996
0.299200
1.726418
-4.160164
-4.484247
-1.333185
-1.395793
4.163608
41.184272
85.351874
102.671914
112.543156
121.907076
118.026987
126.169901
124.009347
113.828079
93.048783
76.383044
69.786426
52.632790
47.811799
40.274749
30.143342
34.971799
22.638067
0.558615
7.819473
0.549350
-6.561022
7.526724
0.521011
-6.197256
-8.226311
-5.800420
6.548327
2.415227
2.300914
-13.946344
3.780748
1.949182
6.245725
-3.789784
1.530035
0.258325
2.238671
1.940890
2.349694
0.141698
1.090089
1.194107
0.537068
0.233970
-0.049646
-0.662993
-0.285556
1.602362
-1.493491
-1.245403
-2.819911
0.594362
-1.061460
-5.033837
-2.370452
2.076071
-5.391591
-3.019318
-6.205791
-6.712183
-10.632916
-2.195029
-4.154832
30.592065
72.493528
104.722424
103.431091
101.250632
113.488252
111.732502
111.590463
108.816135
87.781850
78.190036
61.311917
51.655628
31.731043
29.246452
26.711271
19.235702
16.696896
9.246647
14.041344
-5.395003
-5.311278
-2.869979
-14.274726
-2.757487
-9.204429
-8.886692
-4.521127
-6.315116
-7.933483
-3.955986
-0.381851
-5.041479
-4.662420
-6.912317
-6.249324
-3.532826
-3.062793
0.625167
-2.849699
1.542528
0.757204
2.698375
4.117515
1.806511
-1.982620
-5.708832
-8.525310
-11.332415
-11.066114
-9.094404
-7.788402
-5.494150
-4.361124
0.228351
-1.970165
-5.773081
-4.923186
-5.265199
-16.142299
-2.874920
-9.930230
3.982813
-3.314613
33.588365
79.381877
106.720848
125.055322
104.023086
113.986853
123.589405
123.884714
111.638438
93.778578
72.049194
60.013096
45.151170
45.107672
25.359779
27.624902
27.490930
20.126239
17.593928
7.827177
10.150565
2.895928
-4.134811
-4.046026
7.187752
-3.855774
2.588162
4.519881
-1.508120
4.168926
2.192464
-2.976387
5.092287
-1.137995
-3.723644
0.283395
0.258870
-0.780760
-1.517788
3.097638
1.941386
0.597945
0.445527
0.510481
0.338972
-0.053068
-0.158642
-1.012785
-1.529107
-1.926277
-3.495553
-0.153920
-3.276658
0.670469
-1.191258
-2.386151
-4.964633
-2.830937
-5.729186
-3.260026
-6.751900
-7.188788
-9.392403
1.435166
32.413437
74.433834
106.349673
120.751974
106.011259
104.260206
116.176440
119.098382
108.921272
87.865852
66.136578
56.201405
53.886630
36.422414
26.787155
34.150647
19.272202
4.368486
-3.017084
6.768899
6.690796
-5.316511
-12.253095
-2.818060
1.735971
1.683420
-2.590192
-12.665894
-6.322697
-11.685970
-3.961219
-7.069637
-6.612891
6.868866
2.342341
-2.700118
-4.676684
-1.185489
-1.023962
-0.157138
-1.804319
-1.402517
-0.073474
-0.242290
0.230280
-0.101468
-0.125216
0.632783
0.091558
0.117173
0.753293
-1.984180
-1.416321
-0.697897
0.229986
-0.850734
0.274130
-6.228550
0.316094
-8.580490
6.800677
0.393483
-1.390269
9.781522
46.888845
74.979180
59.075961
63.051763
53.537694
57.192367
75.060695
79.213563
80.323663
64.090728
64.278494
54.794005
40.042394
32.640067
35.243425
30.055801
30.114162
20.244051
15.204380
10.251465
2.957481
7.626875
-4.117899
5.072902
0.509021
2.661440
4.684724
-1.557838
2.397641
-5.185324
5.770232
-1.288991
1.937458
1.793834
0.306285
0.281760
4.742312
-3.735141
-2.354560
-2.010636
0.718120
0.106818
0.430872
0.049049
0.292749
-0.075812
-0.303502
-0.057385
0.280872
-0.107798
-0.131932
-2.183377
-0.957621
-1.081650
-1.191258
-0.246165
-8.571935
-1.574883
-4.404661
-6.215720
-6.761830
-2.105613
-7.615746
-4.165298
34.638288
78.846386
102.504003
114.504455
110.449432
108.927971
120.601880
119.215260
106.488647
90.235913
63.726596
54.091133
36.734606
34.280006
31.791026
29.080593
21.648797
11.709567
14.082004
4.293598
-2.959396
-7.664564
-12.203985
1.772212
-9.482448
-7.050490
-4.719973
-8.658319
-8.290936
-11.627467
-0.408130
2.970571
-8.189193
-1.782560
-0.303014
-0.276198
-4.696542
1.714111
1.460323
-2.221283
2.678073
1.718247
-0.409585
0.157651
0.059799
0.064484
-0.443134
-0.208080
-0.296468
-1.854070
-1.082323
-1.977566
-4.655226
-0.696055
-0.771553
-7.497898
-4.563172
-8.822958
-3.836081
-5.589211
0.367869
-1.320295
5.793344
4.137021
33.465030
81.213305
101.046543
114.190006
106.110379
108.872471
114.419273
116.181376
109.115466
85.914812
64.215906
54.900093
34.903893
35.005752
35.005752
22.770196
22.682110
20.165510
15.159793
12.688531
5.344095
0.540631
12.139568
2.799201
0.507386
4.838932
6.756333
2.482643
8.213280
6.032165
11.042869
-14.631315
-38.718694
-40.226761
-35.648011
-29.157370
-19.762385
-14.452348
-8.208002
-4.118084
-2.232084
-1.755066
0.077389
0.467941
0.175478
-0.006972
-0.181717
-0.061675
-1.197825
-0.111016
1.027634
-2.251608
-1.768682
-1.078766
-4.190150
-0.246701
-3.836073
-4.154482
-4.404661
-7.710364
-3.563527
1.324629
-7.605817
7.041269
34.680021
72.661531
96.951242
113.064263
101.680572
120.452738
111.620321
116.934734
109.131544
82.874030
66.199445
56.522251
46.770219
31.791026
16.792307
16.744602
11.832825
14.176878
11.698361
-5.421167
1.861004
-7.687308
-7.558428
-2.818060
-11.712878
-11.418215
-8.946268
-6.618363
-12.227122
-6.049775
-3.982150
-0.383460
1.214092
-1.788329
-0.305159
-0.276198
0.853489
-1.188373
-2.676154
-1.538439
1.614122
0.346107
-0.076156
-0.450020
-0.219854
-0.031304
-0.262125
-0.740761
-0.684907
-0.373807
-1.660097
-1.944496
-0.616874
0.204371
-0.756822
-0.837844
-0.922550
-1.001730
-2.439454
0.340074
-2.845325
-1.325820
-8.540060
-6.993264
44.953469
83.133822
111.014533
114.571063
113.077645
115.278075
119.067704
112.362965
111.859067
91.147676
69.314896
66.989234
44.977177
32.797901
20.401134
32.545367
20.165510
17.662923
7.850289
7.796361
-1.845099
2.887134
-1.791698
5.051632
0.505751
-5.965768
4.647502
0.462697
4.344404
0.424548
-1.362648
3.738208
-2.769224
-2.583200
-5.085192
2.738516
-0.858100
1.192958
2.688666
0.159137
2.512416
0.103548
0.077389
0.252075
0.246525
-0.008581
-0.507938
-1.092219
-1.578753
-2.045429
-4.294455
-5.041316
-4.162124
-3.783050
-7.061238
-4.577391
3.293330
22.869617
39.524910
38.127023
36.522893
28.908217
12.196685
22.031590
48.281680
93.081792
98.410487
110.522586
114.766305
111.551842
117.578972
109.849412
103.754400
87.529845
78.115427
63.666077
49.029400
34.247666
24.277577
31.701052
24.300524
6.847002
9.202363
-10.276790
-10.197355
-7.664564
-2.884401
-2.812291
-5.007776
-9.234217
-13.192421
-10.693834
-8.340583
-0.427437
-2.195029
-2.065231
-6.632749
-3.254793
-0.305159
-0.279416
-2.490806
-1.194142
4.033918
0.538187
2.152237
1.762531
0.253691
0.752840
0.420156
0.009265
-0.262125
-0.460833
0.086653
0.110088
0.139518
-2.646100
-0.611350
-2.486839
0.226716
-3.035795
1.468482
-0.998048
-3.809626
-8.580490
-9.310451
5.516003
5.785640
4.137021
47.004477
83.232205
117.539528
110.143739
115.658969
111.130012
114.654220
121.879365
108.791681
90.792324
69.180173
62.008566
47.444722
40.158572
32.734768
27.705285
32.671634
12.800819
15.085480
5.370683
2.936963
-1.819319
-1.789857
-10.817409
-3.919192
0.490491
-5.754122
-5.602002
-5.377128
4.137021
-3.141272
-6.282237
-2.777680
-4.021271
0.304105
1.488999
1.368824
-1.733407
0.191292
2.241839
3.019296
0.994374
1.055436
0.647129
0.261933
-0.104656
0.121409
-0.607003
-0.467273
-1.088420
-1.925618
-0.159820
-1.773915
-5.616286
-8.192746
-0.249383
-6.261602
-5.490884
-7.206981
-7.796308
-3.589691
-7.288081
-4.024013
-6.049775
36.675610
76.812936
113.391318
99.530876
106.796528
102.087408
105.031226
110.171867
103.854840
75.512147
66.073710
46.505732
29.218809
24.323470
14.393733
21.813584
6.886053
11.821620
-3.008430
-10.306577
6.671271
44.566156
67.226129
63.715605
53.645524
41.083737
41.739991
15.895917
15.257160
1.446038
10.327707
-0.386678
2.783350
4.041814
-4.321268
-1.497004
-3.570732
3.702202
-3.514960
1.235658
-0.703794
1.262660
-1.390097
-0.481416
-0.092301
-0.171006
-0.274808
-1.241155
-1.038388
-0.375649
1.933682
0.160772
-2.997113
1.096232
-4.748273
-0.837844
-2.122367
-0.996206
-1.060656
1.829007
3.605270
-3.018666
5.785640
9.731616
42.859203
81.405299
107.576570
127.061484
115.783601
111.599906
117.342932
123.884714
106.597566
93.140007
74.009415
59.492751
49.670606
44.933679
27.651696
27.651696
25.188924
10.342275
7.850289
0.549895
7.711618
7.596059
-1.795381
-6.283237
7.172344
-1.662799
4.647502
-3.555599
-7.281275
-10.729056
2.166084
7.032747
3.477650
-1.114057
-2.350670
1.488999
1.365893
4.096550
2.696370
0.156412
0.700533
0.545185
0.392768
0.237419
0.154208
-0.066341
-0.201908
1.036262
-0.089027
-2.095075
0.472952
-1.585534
-2.592761
-2.888426
-0.226322
-3.555569
-5.063925
-9.454590
-0.315885
-0.342164
-5.215846
-5.579742
-5.822340
-7.903695
46.444408
83.105275
96.736273
107.995000
100.300090
104.690144
98.287682
105.255187
89.458761
83.191251
63.787115
54.091133
44.278583
36.769294
16.840013
24.300524
26.584797
9.282075
6.788425
-0.556687
1.857380
-2.921898
-5.185691
-11.995264
-9.462590
-11.356827
-13.177795
-4.552524
-8.330654
-9.809843
-5.746528
-0.384532
-5.079385
-0.331438
-0.304623
-1.488351
-4.716401
-3.146186
3.117644
-2.251608
0.451207
-1.478328
-1.091689
1.219808
1.110016
-0.927800
-3.874432
-6.620601
-7.534256
-7.527207
-8.215805
-4.718505
-5.413353
-3.393128
-5.757054
-4.158157
-3.359878
0.296475
-1.062497
-1.147202
-2.841097
2.098668
2.207119
15.354848
43.124420
82.937055
111.268571
116.723334
117.619516
113.986853
119.312196
109.763089
111.638438
81.671642
69.180173
52.278190
47.352952
42.550745
35.039705
27.517725
34.903893
15.174655
12.663578
5.360048
0.546080
-1.817478
-1.788015
0.517196
-1.712517
2.635060
4.626232
0.458882
2.380054
5.993645
0.399478
2.037115
0.356424
0.327539
-1.018303
0.276310
3.559208
3.120085
1.002437
2.936197
1.270884
2.283187
1.341973
0.746662
0.138255
0.091530
-0.685119
0.511737
-0.089563
-1.104118
-0.749944
-2.988709
-0.992234
-4.702340
-3.206836
-3.570732
-0.271908
-6.777263
-0.315885
-3.312354
-3.600157
-9.024073
-5.852664
7.085554
36.763773
75.038285
101.299648
108.345633
108.917661
102.928499
109.942966
105.152399
104.658359
78.339253
61.428258
56.736148
36.699918
34.215326
14.353073
26.736565
21.751789
11.799209
1.893621
-2.996893
6.703813
-0.545425
-7.573590
-2.815175
-7.240019
-4.876957
-8.906551
-4.542059
1.514897
-11.656718
-3.976918
-7.089495
-8.213748
-4.700326
-6.973705
-1.499889
-4.686613
-1.199911
0.636039
-0.853783
-2.452529
-1.025626
0.603267
0.559736
-0.018771
0.055691
0.034334
0.878246
-0.667996
0.110633
0.135158
-1.924655
2.534588
-3.393128
-2.771238
0.251241
2.669389
-3.611208
-2.447909
3.323442
-1.242956
2.113324
-1.384745
7.910579
47.351373
87.991845
117.807883
123.726939
121.907076
118.525517
123.970462
121.512626
116.583312
68.708644
15.234105
-4.354658
-19.083495
-26.475427
-31.635242
-4.354658
-1.892976
-9.180347
-4.308151
2.975067
0.544445
-6.508110
-8.748330
-6.236939
-12.822530
0.492126
-7.839296
4.482659
-3.424537
4.110433
0.401113
3.700985
4.976729
3.206457
5.599964
0.276855
5.714206
3.073862
-1.450143
2.195616
1.810420
1.846475
1.016917
0.040874
0.064484
-0.181948
-0.213446
-0.633167
-1.273637
-1.637533
-1.360524
-2.304676
-1.000887
-3.822767
-4.259655
-4.646896
-5.093713
2.313217
-3.076878
-3.343750
-2.001774
-5.594905
-9.478346
7.085554
34.846953
81.440457
103.191180
99.745846
115.982050
102.087408
124.418260
110.064382
106.488647
75.728928
71.009710
58.892849
36.873358
34.280006
21.854780
26.888334
19.217451
6.840493
4.335202
-5.405468
-12.547759
-10.058346
-9.839902
-7.384061
-13.923708
-4.866491
-10.988497
1.574696
-4.379842
-11.642092
-5.746528
-0.383996
2.762547
-1.782560
-1.632571
-6.347545
-5.819606
-0.219886
-1.023962
0.530939
1.023474
-0.565343
-0.074547
-0.262481
-0.250179
0.130967
0.175866
0.595561
-1.031774
-0.377490
1.345329
-1.230296
-1.412093
-3.330126
-2.744782
-1.927887
2.664071
-2.274569
-2.435226
-4.140322
-1.248480
-1.331344
0.412558
6.009053
49.305840
81.501295
109.427343
114.825100
108.193173
116.500536
118.945458
112.362965
107.441903
90.881162
86.587334
59.955280
52.480819
40.003669
30.084982
30.026621
25.188924
22.572002
5.407905
7.765546
2.919377
7.588356
-6.389060
0.517741
0.506841
4.780439
4.631549
-9.610414
2.374192
4.110433
3.892416
2.028322
0.352064
4.591533
-7.547526
-26.028747
-31.102002
-25.234703
-19.507128
-12.676973
-5.937693
-2.876349
-1.179045
-0.456361
-0.189007
-0.015553
0.851605
-1.251087
-0.910505
-0.625915
0.476576
-0.894164
-2.660991
-2.971819
-1.237408
0.855301
-3.927047
-6.838651
-5.947630
-6.344800
-5.246171
-2.131572
-5.867827
1.455098
31.073538
81.720642
95.253545
108.813144
97.957220
116.960795
105.767181
112.688795
102.113250
80.958972
71.009710
54.244511
36.699918
34.118307
21.854780
16.840013
19.308702
9.326360
1.893621
-2.994008
-7.793444
1.837447
-0.534162
-11.995264
-2.748834
-11.405937
-0.482677
-2.520967
-10.264116
-7.933483
-7.536312
-3.762373
-0.358790
-1.788329
-4.306105
-1.497004
-3.601056
-4.100787
-1.026847
-3.634185
0.451207
0.358791
-0.075083
-0.046659
0.234308
-0.076101
-0.266353
-0.473516
-0.672224
0.110633
-1.660097
-2.583098
-1.407865
1.090370
0.226716
-4.140156
1.468482
0.293205
1.667796
4.761019
-2.845325
0.390758
-3.183551
4.142338
47.235741
75.334531
100.701282
108.473293
119.570245
118.400884
114.536746
116.886218
104.290451
102.885790
61.827959
49.718877
44.933679
37.647529
30.114162
17.835413
25.164516
20.067333
7.819473
10.201015
5.333460
0.537906
0.528096
-4.020660
-1.703310
-1.653592
4.620914
-3.559827
2.362467
4.115751
5.623857
-1.265053
1.902285
-1.099325
0.299200
7.446134
1.330720
0.216906
0.984850
1.504855
2.310616
0.941199
0.675323
0.382861
0.237052
-0.409521
-0.402925
-1.270946
-0.092781
-1.667858
-5.120466
-2.365326
-4.272622
-2.964238
-3.275066
-4.696542
-8.826547
-9.420642
-4.503216
-4.851950
-0.373270
-7.347656
-2.241180
39.412415
100.030690
138.935235
170.092323
163.644952
156.634261
142.736248
141.202847
129.427729
104.457479
88.117857
68.737204
49.168688
54.193385
26.761860
26.761860
16.871816
6.892562
9.361788
-0.561514
-15.152271
-15.006013
-12.437260
-9.849831
-11.982987
-9.512236
-15.768966
-11.000775
-8.608673
-14.173398
-4.154832
-7.546242
-2.056578
-8.140082
-3.239095
3.670826
-3.911884
-4.676684
-5.070670
-2.683735
-2.929133
-3.583307
-1.025626
0.594946
-0.048268
0.214782
0.010355
0.190522
0.622148
-0.680679
-1.349242
1.949090
2.966467
-0.616874
-0.694214
1.225200
3.574616
3.898181
1.588657
0.315549
0.341709
1.990218
0.392938
0.410378
9.769046
47.177925
89.710823
107.209832
123.180684
110.630773
106.953314
119.923427
105.753229
104.599918
93.322456
64.403671
69.516980
54.794005
40.119846
20.342228
32.387533
29.968260
22.461895
17.490434
0.550985
5.301555
0.536271
2.837306
2.772821
0.504116
-3.788129
-9.895083
4.461389
2.359536
4.099798
0.397843
-4.550386
1.899353
-3.941904
-3.617822
-0.920708
-2.982884
-0.723677
4.179605
2.794937
-0.427209
0.521736
-0.235701
0.531570
0.115559
-0.016626
-0.804270
-1.886721
-1.717763
-1.675439
-2.631255
-0.888396
-4.321733
-5.704040
-3.259904
-6.991106
-0.277807
-6.838651
-0.319103
-7.906807
-5.268914
-0.396867
-5.845083
5.239388
37.204585
85.928153
106.124957
98.092226
102.647934
112.582609
107.807202
112.578962
99.477398
75.945709
71.347529
46.637976
31.791026
29.191165
31.821018
9.423786
11.832825
9.344074
-3.017084
-2.991124
-7.793444
-2.910361
36.888253
61.295783
39.980096
43.132872
33.480904
23.938967
17.096577
7.023555
-2.189260
-3.757141
-5.018736
6.891276
-0.301405
-6.322990
-5.795051
-4.031282
-1.836708
-0.156602
0.438523
-0.104580
-1.038620
-0.444787
-0.095185
0.067415
0.340320
0.061584
0.460183
0.603807
-1.065411
-2.646100
-1.433232
0.207096
-1.771458
2.456689
-0.929915
1.603312
4.506790
-1.163775
-1.257687
-1.333185
2.207119
15.374483
53.214532
89.816365
117.405351
120.893967
115.160439
118.276252
119.801181
117.473586
109.547179
93.322456
69.247535
59.781832
49.863689
37.720207
42.386297
30.026621
27.571313
17.611176
19.890615
5.391953
0.543356
5.237745
0.527551
2.781615
11.565652
0.488856
0.471962
-1.544948
8.112380
2.256948
-1.342392
-1.265053
1.890560
7.411000
-2.308391
-4.482169
0.244156
1.148992
0.961401
0.153687
3.388660
1.325073
1.251163
0.202246
0.115559
-0.541153
-0.434321
-1.008296
-3.021395
-1.172144
-0.770135
-0.165719
-5.148262
-5.733292
-4.279513
-5.893272
-8.860496
-6.900040
-4.518378
-1.857554
-5.306820
-12.577830
-14.974949
-4.217626
39.000659
77.966017
99.618652
104.552903
100.510363
103.454181
101.142963
112.908461
94.688500
80.728101
73.687600
56.789622
44.153384
39.147473
21.937173
21.772387
26.787155
11.799209
1.891809
-0.554542
-7.770701
-2.919014
-14.567241
-9.671104
-9.462590
-4.861258
-0.482677
-14.784467
-12.197871
-9.723899
-0.404376
-8.729409
-8.127805
-4.677583
-1.621033
-7.576135
-6.844848
-4.984726
-4.272622
-2.228864
-0.700909
1.236626
0.246443
-0.046659
-0.167449
0.106350
1.025515
1.140173
1.217218
2.108815
1.350647
-8.202486
-21.529354
-25.884006
-24.709029
-30.551131
-28.760285
-27.113409
-12.140433
-10.164177
-6.129232
-9.930230
-10.439826
13.523176
53.084582
84.019271
118.076239
112.792421
111.469793
121.049027
125.911091
119.500413
116.928574
88.267267
81.671642
54.794005
49.863689
37.393153
27.705285
29.968260
22.616045
20.126239
10.251465
2.966274
5.296238
-1.823002
-1.782491
-3.974153
-1.705151
-1.648067
-7.776294
-1.546790
-5.317602
-3.259651
-1.342392
-1.254004
-1.180348
-1.090118
6.724797
2.642801
5.527059
2.996823
0.178212
2.141688
1.191122
1.715304
0.924470
0.485347
0.215989
-0.183148
-0.883705
-1.038620
-2.222255
-3.853127
-3.919699
-4.577858
-4.383121
-4.861950
-1.260483
-2.511737
-6.433489
-5.600106
-7.391146
-3.390846
-10.238021
-3.898426
-5.898151
-2.319059
49.096070
77.877319
99.508819
109.046899
107.693978
103.349044
117.929605
107.975044
99.381654
95.234780
66.262313
31.791026
36.838670
26.989513
29.329381
26.812450
16.871816
6.840493
9.246647
-5.426399
-7.763120
-12.437260
-5.196157
-16.515828
-9.482448
-13.528813
-10.988497
-2.495007
-6.322697
-6.011869
-0.405985
-2.059462
-5.018736
-9.024084
-1.629687
0.935032
-2.464642
-4.031282
-3.475243
-1.517508
1.006832
-0.103507
-1.015877
-0.248058
0.050738
0.010900
0.485347
-0.219129
-0.298309
0.113903
-0.467720
2.288063
2.603923
1.107956
6.212543
2.456689
0.275765
2.903359
3.068202
-2.659301
2.001942
-1.338710
-3.200462
7.950940
51.260065
87.785533
107.087586
121.564854
112.955399
108.193026
115.006640
114.741918
116.583312
88.526623
84.211015
57.314287
37.320475
-14.254907
-24.017733
-43.638400
-46.094013
-38.351120
-23.691279
-18.731127
-11.352586
-4.160178
0.527551
-3.991065
4.897425
-3.783901
0.470327
-5.502793
0.437627
2.254017
0.395663
0.374408
-2.697351
0.323724
1.585726
2.648119
4.469881
-0.712628
2.511476
2.744487
1.702565
0.501218
0.622148
0.345638
0.121080
-0.526527
-1.019045
-1.330522
-1.777338
-2.737916
-2.031754
-3.147577
-5.192139
-1.145107
-7.434669
-4.775977
-3.972534
-8.219668
-7.354313
-6.404376
2.912324
-12.628752
-7.744827
7.147552
49.037899
92.204590
102.421460
110.880264
109.719368
105.657507
104.021728
96.103475
94.779546
78.115427
63.908153
46.593894
36.908046
29.357024
21.895977
26.837744
19.290452
11.709567
6.814459
-2.991124
-7.755538
-2.919014
-5.180458
-2.803638
-13.938334
-4.829862
-13.075415
-8.588814
-6.292372
-9.699344
-5.701041
-10.413530
-5.026317
-8.980207
-1.623918
-5.113572
0.838992
3.595918
-0.187171
-1.527974
-0.703794
0.782167
-0.389394
0.907632
0.239137
-0.389459
0.035969
0.345870
0.861436
-0.388539
0.741569
-0.541376
2.596219
0.206006
0.228351
-1.978621
0.276855
0.298110
-2.464821
0.342799
2.007804
5.569930
9.457135
11.726546
55.303722
93.767463
107.454325
115.333176
115.285071
118.525517
122.139859
115.087179
109.223394
90.792324
76.606604
61.888161
42.468521
32.355966
39.887492
30.114162
25.042477
20.047698
12.663578
12.651101
5.290920
9.928584
7.441981
-3.995293
0.505751
-3.788129
2.535402
0.455612
2.350743
4.094481
5.616154
3.631858
3.392570
1.726418
4.144706
8.451985
0.239796
3.884660
2.496068
1.456997
-0.934349
-6.247582
-7.072376
-3.428526
-0.574968
1.717886
2.460240
3.465383
2.894129
1.470934
0.496509
-0.917240
-3.554677
-2.082649
-5.402166
-1.387397
-0.282098
-8.322048
-3.155370
-9.492108
-3.668183
-9.159127
-7.724968
5.252405
43.252456
86.222427
104.336476
96.107031
109.604839
112.353549
106.187726
96.196870
99.764628
85.573053
59.004494
41.668793
34.377024
24.369364
24.369364
19.290452
24.208737
6.840493
-7.914743
-5.415934
-15.006013
-2.921898
-9.869690
-7.384061
-16.091475
-9.174641
-10.939387
-4.552524
-14.122476
-4.144367
-9.220515
-8.680299
-1.900820
-6.056852
-2.930360
-5.083784
-5.684552
-4.001494
-4.272622
-0.155529
1.002672
-1.402517
-1.038620
-0.418623
-0.120354
-0.088784
-0.130741
-0.213604
-0.303834
1.633230
-0.475085
0.162407
-1.441688
-0.697897
1.233993
1.357100
0.277945
1.603312
1.705901
-1.169299
2.001942
-1.338710
-1.399476
7.920669
63.063288
96.021311
114.135234
117.499764
120.217270
114.706013
117.462793
119.260692
106.808651
85.662615
61.707554
57.258857
44.803184
34.937846
32.640067
35.107612
29.939080
17.628425
12.725960
5.354730
5.285603
2.878341
-6.349376
-3.991065
-8.316314
0.488311
-5.714438
-7.533285
6.163131
2.236430
3.849876
1.999011
-1.171141
1.732281
2.876772
2.610896
5.514583
0.207096
-2.123073
3.368637
3.794769
0.498287
0.062129
0.032154
-0.066139
-0.303247
-1.129544
-1.360309
-2.222255
-1.743669
-3.351799
-1.658793
-5.265268
-5.850298
-0.234366
-5.942383
-1.514311
-4.283362
-8.819324
-11.033184
-8.655744
-7.377444
-13.205873
16.622816
87.061664
138.453080
164.056149
157.416491
164.223592
136.218138
141.764290
115.771026
97.597796
88.537866
81.497673
46.682057
39.332655
29.412311
29.246452
19.345203
11.821620
9.282075
9.228933
-10.336365
-10.237072
-7.672146
-0.533626
-9.710821
-13.923708
-6.997421
-8.837046
-8.549097
-10.190450
-4.144367
-7.417161
-10.325775
-6.533457
-8.892452
-8.219668
0.925972
-2.438478
-4.935615
-0.995118
-2.198540
-0.126032
-0.539383
-0.392279
-0.043441
-0.258161
0.192598
0.377543
-0.503111
0.483632
2.139085
1.366599
0.164587
0.188022
3.854389
-0.786285
2.483276
-0.944647
-2.333758
0.317184
1.846594
6.931847
7.315268
-1.399476
11.681958
57.402214
100.322442
114.135234
126.305875
112.955399
113.009589
115.124114
119.740133
90.259297
78.675298
64.215906
67.184159
37.429493
34.971799
35.107612
30.114162
25.066885
20.067333
12.701007
7.773250
0.541721
-4.143266
0.524826
2.761097
-1.697786
11.141453
4.583692
2.450400
0.435992
-1.412366
0.396753
5.261773
-4.193234
0.319909
0.293750
2.600261
3.412834
6.589098
3.992458
0.794328
0.118808
1.294258
1.119993
1.158486
0.046223
-0.295666
-0.259596
-1.046202
-2.676511
-1.736088
-2.077241
-1.648328
-4.419954
-3.009725
-2.281495
-2.537901
-3.972534
-8.292797
-7.391146
-11.033184
-10.325775
-10.940057
-5.875408
7.174123
46.946811
86.320519
106.241834
109.163777
103.185358
112.582609
115.789438
103.453080
90.235913
76.090230
59.004494
54.091133
44.236850
21.937173
19.326952
9.370645
19.290452
9.264361
-0.560441
-15.166897
-17.415457
-14.801253
-12.216262
-14.245475
-16.142397
-15.633173
-8.866834
-14.597751
-14.071553
5.154777
36.534528
31.165453
29.005471
21.159688
17.980833
15.325674
8.431588
3.560491
5.470221
-0.153920
-1.255869
0.765525
0.235570
-0.224983
-0.012335
-0.158734
0.216901
1.241073
0.091558
1.164534
-1.713009
0.165677
1.829223
-0.705262
0.233801
2.515181
3.936700
1.606243
0.318819
0.346614
-4.590070
2.136773
-3.230057
17.330894
59.654762
102.360434
109.925873
102.557972
111.589653
121.684122
117.223073
114.626830
111.969382
85.998877
64.466260
49.718877
47.169414
49.911960
35.039705
27.544519
27.544519
24.993661
12.651101
-1.854306
2.936963
9.918494
5.104807
-3.982609
-6.078205
2.614542
4.604962
-1.522851
4.216784
4.051941
7.295088
1.990218
1.858318
0.317729
0.293205
4.954202
-0.815747
4.728567
1.712237
3.983161
1.687157
