669.860121
992.467932
-60.461068
-6.368559
101.134119
49.626693
29.227095
24.193100
33.353982
39.146644
28.903726
22.007653
13.206340
10.740606
8.569287
3.905458
0.334990
2.617713
1.689259
0.520094
0.296698
0.167547
0.072440
-0.167039
0.447615
1.223002
0.735108
-0.292520
-1.016453
0.403429
0.469220
-1.517571
-3.915861
0.631833
14.857518
56.055637
106.677631
140.047448
153.170489
146.237105
148.058657
145.074160
149.015640
138.452266
142.954716
152.498916
143.604120
149.126239
139.467062
135.649076
110.339205
82.515505
77.656570
77.968444
64.660316
61.611045
59.348737
49.271851
43.896441
40.892753
34.812561
29.657593
29.989009
20.960699
25.097564
18.640938
19.447113
25.504861
19.208296
22.784239
18.212527
16.989367
14.941791
11.692543
9.708425
4.104965
0.935621
-2.986470
-8.255577
-11.444975
-15.640844
-19.263013
-19.680071
-24.938722
-22.243655
-24.537532
-26.483852
-25.665592
-26.727186
-29.419973
-32.302236
-21.716545
-18.965709
-15.888677
-21.627014
-19.760540
-20.717798
-20.214000
-17.928342
-15.375549
-11.173788
44.277795
93.803360
105.164371
114.787700
120.474928
133.346822
124.497436
117.781880
121.242418
122.326754
128.842097
121.186949
102.082640
77.251325
68.795347
53.725148
48.631666
51.031196
33.717943
33.527446
33.273450
20.714103
8.495497
15.890880
8.397094
-5.952591
-8.192760
-7.985663
-12.239974
-3.259635
-7.339520
-7.091003
-6.825919
-6.436577
-0.903394
-5.782150
-5.359672
-6.436528
1.937264
-3.011869
-1.654837
-4.276833
-2.849656
-1.707516
-1.399215
-1.156131
-0.163367
-0.098752
-0.248516
0.177124
-0.078622
1.828438
1.383258
2.263956
2.192970
1.109940
1.251866
0.485357
1.561194
-11.963575
-29.165367
-38.107118
-46.418464
-45.665838
-34.328323
-39.890640
-19.403110
37.625520
71.620923
92.330839
116.339207
113.272456
114.586339
112.492905
124.789553
120.154437
114.659526
78.140020
58.588081
51.163565
46.087598
31.304633
33.773152
23.710866
16.065251
13.560597
3.693734
10.897317
-3.532706
5.825390
7.970601
-3.269708
3.253397
7.253669
8.947499
10.491272
0.934715
5.937887
5.549900
9.407861
9.896000
7.688816
9.995533
7.011920
8.271726
6.632512
6.644430
4.261992
2.219244
0.562596
-0.448267
-1.524107
-1.287306
-3.209333
-4.212249
-8.952984
-7.730072
-8.787871
-5.525500
-7.983216
-10.749461
-9.467532
-12.433709
-12.148029
-10.356616
-7.991066
-14.591083
-10.744027
-4.464444
-4.630452
2.841321
22.794267
64.647942
83.679051
96.685601
103.112437
103.571675
106.784860
115.655128
103.542902
87.484474
75.228410
61.054928
53.522793
46.004787
26.067094
13.697828
11.178056
16.043530
11.030281
-1.264264
3.588302
-6.035596
-15.379307
-8.159624
-10.234611
-5.585001
-3.259635
-1.076514
-3.023741
-0.992392
-2.762827
-6.105221
-5.773866
-2.305334
9.113213
-1.965789
0.572322
-1.647689
-4.223639
-1.986173
-0.346240
-1.375499
1.508853
-0.154833
0.086303
0.024982
-0.160700
0.093099
-0.147994
-0.197711
0.270608
0.949817
-0.359580
2.926771
-1.393180
-3.657030
-0.556135
1.910552
4.731754
2.208962
5.507728
-2.509146
-6.262037
-2.768590
16.522229
55.357149
84.617781
97.569979
100.625862
111.724630
117.493392
129.803183
120.510626
100.258955
77.913308
68.619111
60.961847
53.812084
41.307738
31.124549
28.610388
21.015296
15.971484
13.494448
-18.209490
-51.199394
-66.858188
-67.862545
-63.785033
-53.066266
-55.686846
-39.379137
-33.827377
-19.453377
-21.907965
-12.360925
-5.293509
-0.682161
-3.172339
4.099166
1.579390
3.221978
4.220322
4.031940
2.155632
2.250385
1.712423
0.735229
-0.117028
-1.343908
-1.416303
-2.409732
-4.978437
-3.775758
-5.776799
-3.489556
-9.954162
-9.054988
-12.069761
-9.728290
-8.058020
-11.393132
-9.239863
-6.808889
-8.926606
-7.851500
-6.403441
-10.472844
-6.900474
45.849208
76.547589
93.487966
94.239047
107.902625
108.913879
118.157275
102.942653
95.062488
67.889294
55.749672
43.515546
41.065427
28.553672
18.571502
16.119855
8.602101
6.102778
3.602264
-6.088956
8.347892
-10.638889
-8.134773
-12.434878
-7.761998
-7.546617
-3.130966
-5.027687
-2.884348
-0.943626
-0.898517
-4.096853
-0.781478
-0.721740
3.179991
-1.783507
2.624662
-2.318190
-1.956529
-1.000765
1.315254
0.621321
-0.717394
0.403344
0.105220
-0.036999
-0.849029
0.157648
0.640490
0.807891
-0.308707
1.883442
-1.254573
1.441102
2.625953
-2.892602
-3.148532
0.705071
-0.702973
-5.527291
-0.820906
-11.625835
-2.768590
6.874116
49.498433
74.516419
95.533065
104.819309
110.398932
122.522941
113.820098
110.775759
105.003867
66.125374
63.631636
51.261957
46.265200
28.803702
26.227425
23.688045
21.137834
11.135629
13.494448
1.253735
1.240080
10.583180
-10.306572
5.668437
-1.060241
7.439228
-0.987400
-0.948089
2.816699
8.048416
0.863960
-2.324336
7.977600
1.986974
7.798210
3.795524
6.204187
5.250899
4.266355
5.598546
2.578566
2.054907
-0.062435
-0.079040
2.709709
6.049221
7.082411
8.182498
9.510020
11.321452
5.550306
4.596067
2.309001
-2.561274
-5.085389
-6.691706
-7.263424
-6.319500
-11.188686
-8.900618
-4.345866
-8.191945
-10.381889
-2.966554
37.300003
72.026418
84.980725
100.144277
104.000099
110.586214
113.269802
108.417765
82.316854
72.968646
50.741794
38.537371
31.040559
26.091779
13.620366
23.468558
11.051392
-1.271579
6.079395
-8.507547
-10.819750
-10.628250
-1.192334
-3.441918
-14.366299
-7.513481
-7.289817
-3.020167
-2.898645
-6.386873
-4.339937
-8.978580
-5.285117
-9.071029
0.614338
-4.133657
-2.667994
-3.230714
-0.401102
-0.972172
-0.273091
0.194181
0.967634
-0.563304
-0.013411
0.042205
0.488971
-0.156088
-1.065382
-1.903659
-2.304430
-1.126628
-2.124812
0.494046
1.608503
-0.563072
-1.890744
-3.386606
-3.624680
-0.766564
-4.243673
-2.647753
-0.902997
2.965904
43.544965
68.300357
91.750952
100.189308
114.828594
111.085681
118.492222
113.098015
105.105813
75.880188
65.871045
53.915271
41.268133
28.720853
31.274619
23.642403
11.200622
-1.183955
1.266148
-6.029230
-13.105597
1.216495
-8.040456
-7.840070
-1.060241
-3.163087
-0.987400
1.021608
-2.779252
-2.644199
4.213598
2.376363
2.190766
7.302878
0.621902
-0.517980
2.408633
2.058506
-0.322581
1.923066
1.863160
2.784144
0.251101
0.072440
-0.306504
-0.957500
-2.026017
-2.762750
-3.947906
-4.656051
-6.298316
-4.599736
-5.132473
-4.606639
-6.184955
-9.188177
-5.915222
-7.757181
-6.734417
-7.308917
-12.994455
-13.649488
-12.278888
-10.797684
25.308638
69.858939
82.284785
97.942619
89.536585
103.180192
111.540948
91.268081
117.183369
134.587079
132.998294
118.301531
106.043938
88.570719
78.437526
65.668344
58.118589
28.202159
28.039923
13.271788
10.713623
3.497547
3.406792
-7.969095
-1.135033
-5.359704
-1.065542
-6.983313
-4.808318
-4.559306
-0.893641
-2.451875
-5.276833
-4.870923
-3.219380
-1.787081
-3.702895
-5.054512
-1.944671
-2.286352
-2.404389
-0.621904
-0.418177
-0.691528
-0.050038
0.217320
0.320245
-0.779693
-0.205805
0.278056
2.252011
-1.833171
1.284619
-2.368838
-6.761014
-0.559604
1.939665
0.703829
-2.160851
-2.338552
-2.534024
-0.867154
0.968231
4.901779
31.365675
72.335558
91.954843
98.628550
106.182752
110.857813
109.356957
103.474685
90.185923
77.988879
56.150732
51.212761
41.109714
26.126550
13.719355
16.252783
21.137834
1.272355
-1.180486
1.252493
-3.536260
1.214012
-5.719733
-10.113122
-5.475707
-9.543520
3.053244
-10.818362
-0.915715
-2.676185
-0.812813
5.473990
2.205323
2.019726
-0.590821
2.782907
2.475036
1.259145
3.119709
0.847921
1.526644
0.451254
0.632587
0.126770
-0.491155
-0.679278
-1.076905
-3.590441
-3.894796
-2.808667
-1.086545
-2.057320
-5.909215
-3.545502
-6.106994
-1.808526
-1.990808
-10.392023
-6.702500
-10.437055
-6.063802
-9.940107
-8.479195
-2.970128
25.191060
72.188823
87.419197
92.313966
94.560761
101.372493
125.444500
105.673145
89.434388
72.968646
55.643784
40.987798
28.688870
18.624362
23.513218
13.633277
3.651132
8.536498
-10.979334
-8.499263
-17.951467
-15.302564
-15.087684
-5.685792
-14.366299
-5.353775
-7.231829
-3.005870
-0.983858
-9.992081
-2.616286
-10.559844
-11.224093
11.785266
25.901467
29.704006
29.981551
27.636391
19.140922
16.900400
11.129503
7.529639
4.775594
2.095465
0.271532
-0.590617
-0.312755
0.491285
1.092638
-1.351071
1.635939
-1.874834
1.299175
1.437463
-0.508731
1.761347
-0.613945
4.799230
0.752241
2.409115
-0.826687
2.725721
4.702569
-0.944620
43.596559
78.622395
87.240835
100.735001
97.154064
111.427483
113.478295
113.098015
95.033087
75.367978
51.163565
50.917587
46.220799
23.710866
26.202206
16.190272
8.670665
6.181554
-1.175861
-1.165455
-1.148112
-5.832818
1.191669
-5.588792
1.137051
7.456097
-5.065029
1.021608
0.973196
-4.451988
-0.812813
-2.338552
0.753482
2.041561
3.060594
3.879869
2.426743
2.100762
1.714415
0.294193
1.104711
2.271213
1.140820
0.120733
-0.240233
-0.621291
-2.212952
-0.210914
-1.822454
-1.547437
-3.976043
-4.534768
-3.205863
-3.562069
-2.780643
-7.843140
-7.211450
-4.879207
-6.702500
-10.437055
-7.787667
-9.953100
-12.232842
-4.920967
43.405063
76.547589
89.676424
94.539171
108.238074
103.599198
102.142322
101.203459
82.474549
75.300193
58.395081
43.556715
28.607751
23.624867
21.093629
13.620366
16.013000
8.552899
-1.258168
1.163948
1.150321
-3.570587
-10.415472
-3.420473
-3.345415
-7.472062
-3.123817
0.956141
-4.772745
-4.577092
-0.886326
-7.255722
-5.235414
3.396278
0.608660
-2.893291
-0.529113
3.091508
1.106509
2.173076
-0.775593
-2.078977
-0.902943
-0.463897
-0.024852
0.295797
0.116684
0.520398
-0.682374
1.965238
0.997126
1.168166
-3.047525
-1.432274
3.778655
4.116035
0.665348
0.712519
2.219879
8.850770
4.322258
-13.509110
-44.029569
-55.863123
-25.409648
13.752355
37.970313
58.877015
58.798079
62.183284
68.650952
72.119997
65.425971
48.435838
36.166948
48.763423
28.720853
21.260372
26.277862
16.190272
13.692895
-1.183955
3.701012
-6.011374
1.233874
-1.131925
-3.401207
10.149887
-5.422140
-1.023242
3.104192
3.002296
2.860369
2.714803
2.543763
0.815548
-0.706442
4.689581
1.866882
2.813090
3.458144
3.780481
2.412267
0.866117
-0.210429
0.473089
1.424015
0.343809
-0.198813
-0.961527
-2.266063
-3.369800
-3.841685
-4.620644
-3.244861
-3.702333
-8.651548
-5.548269
-2.768785
-7.843140
-5.872667
-4.870923
-2.255296
-5.657892
-4.328079
-4.547448
-6.585687
-4.938754
33.419029
74.533096
89.578738
99.094885
105.848966
109.023340
111.540948
98.573009
92.239018
85.181187
78.215113
48.448151
33.559196
16.150385
16.089325
16.089325
6.120314
-1.267921
-3.688535
1.162813
-10.777195
-5.899232
-1.191115
5.594213
-3.323970
3.162453
-13.414685
-8.926028
-12.355631
-6.362022
-2.584119
-8.809663
-8.211957
-3.438748
-5.649250
-4.025967
0.491697
-0.459621
-2.625991
-2.170377
0.232790
0.551509
1.087195
0.506654
-0.016699
0.430159
-0.366065
-0.518888
0.695077
-1.970454
-3.030713
-0.374611
-1.300775
-0.472888
-1.599314
-1.762799
-0.623195
-0.663662
-2.199945
-3.987743
2.631103
-0.874092
2.856730
6.916289
41.767180
81.272222
100.940536
109.706226
113.624305
115.880169
114.389768
101.538631
105.003867
73.252401
58.475303
46.176399
41.228528
28.720853
26.202206
28.638004
16.096506
8.645361
8.603189
10.918982
-20.195842
-45.685405
-65.355756
-68.264170
-57.655252
-53.706152
-45.982048
-38.211310
-31.023134
-29.284258
-17.568360
-19.543581
-7.965890
-5.943206
-4.241486
-0.531855
1.484772
2.088689
1.720452
-1.386782
3.172488
2.000342
0.590415
0.359437
-0.265084
-0.670994
-0.461067
-1.055340
-1.830738
-4.052033
-2.559720
-6.213969
-6.016655
-3.570353
-8.373811
-6.639731
-1.990808
-6.287583
-8.198964
-4.061280
-0.892422
-4.559306
-4.760887
4.845979
35.734620
66.056555
93.795155
92.216280
103.785887
108.913879
99.640472
101.496520
84.693973
73.107502
58.284484
33.559196
36.048129
13.659097
23.669526
11.114724
11.072503
11.019726
1.175304
-3.677812
-1.235004
-8.250747
-3.491956
5.576676
-7.720579
-7.472062
-11.278448
-8.904750
-10.446857
-4.529661
-0.877792
-5.599905
-5.210562
-3.450606
-3.130446
-1.740617
0.492833
-0.453526
-4.157953
-0.320638
0.238467
-0.568292
-0.378861
-0.439046
-0.005952
-0.297593
-0.851637
-2.269214
-1.594732
0.292952
0.348811
-2.688501
-3.911984
0.501494
2.710466
-1.748583
-0.618570
-3.428269
-2.189283
-7.232871
4.346405
-2.679739
-0.904153
1.015401
41.865571
83.382046
93.908995
98.948772
97.459900
115.880169
114.389768
101.239988
89.748127
68.157252
48.529434
48.763423
21.260372
38.621081
31.184577
11.233119
23.528299
8.611623
3.686455
1.248769
1.228908
-8.140648
-3.408315
-5.570937
-3.234168
-5.225729
5.131173
-2.924967
-2.779252
0.919819
-0.807032
0.809342
3.676334
4.689581
4.259422
0.577215
0.503977
-0.402360
3.130541
3.148704
1.960651
1.408202
0.294771
0.375064
-0.363821
-0.829833
-2.567466
-1.819250
-2.832606
-3.898547
2.484687
14.203276
21.621663
23.723002
26.981781
25.901389
28.076701
20.155576
18.606699
13.722844
7.747585
-0.938749
2.792453
12.700492
41.577402
74.700210
93.999948
99.199637
97.340332
104.541961
114.387964
101.301146
77.696150
63.128514
60.881968
46.004787
36.048129
23.647196
21.073654
13.555815
1.188930
-6.166031
6.050167
-8.457844
-15.594188
-12.941629
-3.488382
-12.512840
-5.507926
-11.694243
-9.234556
-6.941894
-12.340282
-2.719937
-5.972679
-0.825368
-5.210562
-3.444677
-6.886610
-2.863647
-2.561274
-0.452307
-1.125861
-0.315761
0.726038
0.906064
-0.371713
-0.167986
-0.006937
-0.184810
-0.630897
-0.169962
0.698716
-3.141663
-1.660568
-1.934353
0.450600
1.488411
-3.740523
0.611972
-0.619726
-3.392558
2.241714
2.427311
2.620185
-0.870623
-10.305706
12.736556
43.957714
78.802308
93.908995
89.961039
110.631595
120.560433
109.029541
103.882467
77.762167
68.421172
61.020634
31.184577
38.658288
23.619582
26.176987
8.729706
6.205701
8.645361
1.256217
3.657342
-3.529152
-5.803059
-7.982010
-12.224880
3.307984
-7.364156
1.051399
-2.896535
-8.393569
-7.931439
5.853542
0.809342
0.748517
3.344317
-1.805448
0.568525
1.477493
1.244588
3.770507
-0.842305
0.655046
0.772694
0.440677
0.264597
-0.363821
-0.456523
-1.351139
-1.408260
-1.298424
-2.178661
-1.814236
-2.915927
-1.390349
-5.509288
-3.893425
-10.309982
-1.990808
-11.834415
-6.755695
-8.952593
-11.311926
-11.849127
-14.198300
14.800817
41.818570
75.034439
92.538342
90.565144
104.964055
102.294061
102.342404
89.434388
84.937580
65.730707
35.979920
53.421616
80.929123
100.765639
106.043938
83.341872
72.899218
62.768465
42.650998
42.239309
44.220307
19.855177
21.771498
1.084459
-1.132595
-13.783052
-1.057007
-4.968398
-10.394883
-8.106834
-4.256933
-2.405411
3.653483
-2.047995
-0.641276
-3.984547
-1.522593
-3.861917
-2.551436
-0.310885
-0.721981
-1.234299
-0.545457
0.146604
-0.015031
-0.357111
0.389389
-0.176899
-0.227773
-0.877846
-1.749846
-5.938267
-1.332761
-0.480982
-0.530698
-0.579259
-8.439610
-0.670599
3.736701
-4.035358
0.898717
-2.676185
-0.913403
2.984100
41.865571
76.876932
89.891553
105.958650
104.445716
119.068046
108.811264
93.832475
85.246710
63.386899
58.644469
41.188923
33.805564
33.805564
26.277862
21.076565
16.127761
6.151370
6.115150
-1.163143
-1.145800
-3.458072
-5.689974
-1.079896
1.129603
3.191531
1.047675
4.956109
-4.660303
-0.849811
-0.805875
2.365445
6.542723
0.685209
1.819573
-1.641962
0.496529
-2.863838
0.351294
1.382398
2.734843
1.062747
0.926090
0.151821
-0.402802
-1.065475
-0.800398
-2.701355
-0.274310
-1.583010
-0.377938
-2.086964
-6.016655
-2.561274
-3.926560
-4.307619
-4.663826
-4.912342
-5.309969
-9.017561
-9.602273
-8.223861
-8.585583
2.921604
39.914670
79.440303
88.086519
92.704713
108.908971
114.170906
109.676727
89.692124
94.881244
60.939621
48.448151
28.688870
36.116337
13.723649
11.156945
16.089325
6.132005
3.633679
-1.258168
-20.559789
-10.766556
1.123068
-8.068502
1.083323
-12.071058
-7.438926
-9.213278
-14.782520
-8.511111
-4.523732
-5.931260
-5.533634
-3.699619
-6.074806
-4.373890
-6.223936
-5.535275
-2.982198
-1.097268
1.496467
10.117730
11.473883
6.962935
2.653442
-0.507976
-3.299354
-6.046267
-6.960251
-6.805956
-3.776842
-4.476257
-4.351006
-7.586152
0.511424
0.563560
-6.559371
-0.626664
-3.440172
-8.176210
-4.011551
-0.831312
2.754834
-0.912246
6.924723
52.128994
70.882787
103.338167
102.044665
106.628898
109.751920
121.248336
101.339536
87.120338
68.355192
48.342242
51.065174
43.556654
31.094535
28.555156
23.528299
13.613516
6.157407
6.139297
8.459802
1.223943
5.837463
3.457189
-3.315911
-9.704729
-1.011680
1.047675
-0.944620
2.842173
-4.404373
2.529207
0.809342
0.747276
4.672712
5.459491
0.571008
4.387091
2.064542
0.355018
2.513099
1.526644
1.627272
0.440677
0.072783
-0.308528
-0.450595
-1.361778
-0.614756
-4.432891
-2.178661
-5.488121
-2.899359
-5.041518
-7.577148
-5.021556
-7.950580
-5.936500
-10.462837
-5.326536
-5.724163
-2.637731
-0.942407
-10.407876
8.845336
39.777033
70.726262
84.006603
99.932897
106.724655
119.356149
102.342404
99.526326
85.099985
53.269850
53.421616
28.661830
33.590945
23.624867
13.607456
21.053679
8.593900
-3.713554
1.174168
-8.482696
-6.005951
-3.559865
1.108306
-5.650219
-9.862250
-1.096020
-11.330422
0.950463
-2.855755
-4.505946
-4.280648
2.342170
-5.202278
0.651811
0.596169
-1.704875
-1.504722
-2.146253
-0.371842
-0.308446
0.225976
1.541073
0.331604
0.401101
-0.053567
0.071997
-0.380281
-0.886826
-1.661527
-0.863629
0.359983
-0.378079
1.361041
1.506607
-1.609976
0.621902
-5.824987
-2.036460
-0.723785
0.839133
9.578412
-2.693955
-10.345141
-24.571638
-0.974681
17.870149
33.672522
38.936372
58.492157
60.021764
71.058368
67.431473
52.934993
58.362525
40.951295
33.740741
40.951295
23.573941
11.222287
13.666436
18.548240
1.266148
10.951479
-1.160831
1.220219
3.533611
-1.097239
5.638253
7.616352
-3.109777
-13.071293
-0.941151
4.714642
2.678412
-0.804719
0.799411
2.168931
3.302061
0.621902
2.734613
4.311265
2.016249
1.018961
1.376362
1.044345
0.451254
1.031427
0.090550
0.036338
-0.486168
-1.404333
-1.872444
-1.839022
-2.819306
-0.381596
-5.479454
-5.171454
-4.617278
-3.976264
-6.769667
-8.625919
-9.193817
-5.343104
-4.138355
-14.903340
-4.600808
-12.432374
0.955005
50.446706
79.263768
90.457918
90.469812
102.656435
114.627590
100.519652
101.789580
85.099985
65.668344
56.067334
41.026613
36.014024
21.073654
21.193504
13.607456
8.602101
6.102778
-13.474367
-1.249634
-6.000022
8.134684
-3.484808
-1.159416
-9.851611
-11.642269
-7.173842
-2.962980
6.511028
-8.043000
-7.585528
-5.533634
-0.749780
4.657763
-0.632741
2.764956
0.479206
-0.435238
1.057641
-0.298693
0.219163
0.488679
-0.957500
-0.125096
-0.063973
0.078203
0.953098
0.574985
-0.237022
-0.290208
-1.037777
-5.253385
3.205109
-0.490231
-0.534167
-0.581571
-0.634757
0.717484
0.786998
-2.423849
-6.095049
0.948370
-2.829008
16.726460
64.461738
83.666303
90.389291
108.072295
110.980591
114.470547
111.424968
117.844171
90.536159
68.421172
51.114370
43.766666
33.675917
28.665621
26.025675
21.056142
13.547367
11.027305
1.253735
1.243804
3.599116
5.867647
-5.678070
-1.076428
-3.212844
5.263979
3.067800
4.883669
-12.061026
-43.028289
-50.138352
-43.843674
-43.414258
-31.757578
-26.629697
-25.618228
-17.460216
-10.764804
-6.206856
-0.803211
-2.247801
-0.720175
0.404457
0.036391
-0.454776
0.688824
0.154436
0.206672
-2.436306
-4.159473
-2.592855
-4.638716
-4.202361
0.496239
-6.262917
-10.450390
-6.000333
-2.151645
3.776240
-9.082529
-2.652028
-10.096030
-12.463071
8.866446
46.484532
77.234885
83.825359
97.481428
95.537629
100.341576
100.226592
92.062484
73.176930
58.339783
46.178883
38.683207
28.688870
28.661830
13.646187
18.589122
13.568725
-3.727851
3.612736
-10.894222
-1.227689
-8.259031
-10.362278
-14.642574
-7.662591
-3.184578
3.022830
-2.977277
10.276599
-6.246047
-4.215431
2.317736
-2.201684
-6.010972
-4.282767
-2.798429
0.473528
-1.261679
-0.363308
-1.464432
1.599056
-1.478806
-0.103628
0.104717
0.023585
0.236545
0.143993
0.196129
0.746025
-1.505819
-2.463068
-1.215478
-0.434733
2.529366
2.782907
-3.023543
3.314134
-3.463980
-2.239039
-2.430957
-0.844030
-10.029660
-4.701966
16.787729
52.312547
84.234817
92.566516
99.482476
104.445716
107.501599
109.138680
111.758008
72.898525
68.421172
51.065174
41.030504
46.131999
26.101331
33.611093
11.178958
6.169481
6.169481
-3.586017
-10.768702
1.223943
-1.116895
-10.188353
1.150705
-5.362622
1.086156
3.056883
-4.844810
0.955818
0.913613
-2.455835
2.347249
0.739828
3.296024
0.620661
1.648533
2.390523
0.417084
2.378529
-0.810319
0.211025
1.299879
0.531373
0.203160
-0.273368
-0.893667
-1.715156
-1.466247
-3.965610
-2.861861
-4.727372
-6.320191
-7.902982
-1.547612
20.804436
31.204208
32.689466
34.419067
37.186429
28.941749
30.712012
30.197450
12.364661
18.823972
64.722079
94.381069
99.608746
101.857976
107.490884
105.170470
112.307176
96.602816
85.181187
55.908503
41.026613
43.556715
21.153554
21.133579
21.173529
8.651302
1.192337
1.187795
-3.699257
-3.663516
-8.358437
-8.209328
-3.470511
-10.117584
-5.460495
-9.521806
-13.291896
-8.872833
-4.713456
-2.702066
-7.553611
-3.930845
0.698369
0.642727
-3.047442
3.878736
-0.502292
0.400852
0.339532
-0.875670
-0.240174
-0.824114
0.491028
-0.035355
-0.019655
-0.231012
0.418502
0.585903
-0.732130
-1.511771
-3.170426
-4.443021
-3.139368
-1.482031
-0.535323
-3.029494
-9.795450
-3.452076
-3.743717
-0.790845
-0.841718
-2.701063
0.983127
18.781562
60.725179
85.977883
98.770505
108.188627
99.856564
100.212429
107.061077
103.780521
87.631308
65.680299
48.576232
38.621081
36.097329
33.578681
23.619582
26.000457
8.645361
1.266148
3.675538
-3.554031
1.221460
-8.065504
-7.915215
-7.773275
3.267953
-1.008211
-0.973525
1.002988
0.957059
0.906165
7.420142
-2.271026
3.628041
-0.626664
-0.578103
1.641255
-2.327175
-0.383860
1.654049
0.807891
0.636851
0.718364
0.386347
0.108323
-0.331355
-0.883028
-1.093472
-2.325855
-4.107239
-4.815384
-0.381596
-2.116609
-2.324119
-3.603489
-6.223936
-1.865712
-2.019401
-3.569183
-2.316057
-2.509061
-11.434714
-8.298334
-12.417025
4.933663
46.272757
75.619340
90.848665
91.232466
104.749843
108.070134
102.642529
101.594206
72.760363
53.573382
50.982962
36.150441
26.190518
21.173529
6.190461
-6.260893
3.654622
3.630188
42.650998
68.615495
75.249611
64.265079
67.553276
57.127705
35.825509
40.969885
29.602437
26.415564
17.707485
4.413407
4.150356
6.987604
2.146698
0.639320
0.592762
-3.909993
4.306560
-0.426704
1.015755
-0.293816
0.215756
0.157843
0.289717
0.035202
-0.056864
-0.576107
0.143993
-1.741048
-1.214179
-0.892062
-1.044885
0.412119
-0.439358
-5.534059
-2.737854
-5.448834
-4.558763
-6.265622
-2.253255
0.849064
-6.053303
-6.370579
-4.737677
4.980256
58.394336
87.601956
98.879644
101.280694
113.980494
121.301583
112.094187
103.984413
79.839687
68.157252
43.514651
41.149319
18.728495
23.596762
18.620342
16.049623
16.002740
1.268631
-8.466274
3.650064
-5.850674
1.197875
1.175531
-1.071803
5.414896
-3.077791
1.040227
-2.857441
-0.890278
-7.856209
-0.790845
-2.267472
-4.942835
1.961500
4.166642
-1.602868
0.484115
1.175444
3.585290
1.328068
1.819830
0.961533
0.754101
0.079379
-0.225297
0.537793
-0.493234
-1.925639
-0.818483
-4.236216
-0.388910
-2.990482
-4.234278
-5.717186
-5.181139
-3.118589
-4.721813
-3.586970
-6.989750
-4.197644
4.366643
-10.186985
-8.628139
12.959997
48.551971
84.236912
87.119190
97.993410
103.180192
103.010836
105.263559
91.974217
87.985818
65.855433
46.048312
46.048312
43.680221
21.193504
11.178056
26.165833
16.028265
18.377682
1.175304
-6.065240
-13.123539
-8.250747
-10.341000
-7.877972
-7.637740
-5.288557
-1.053350
-10.771697
-10.290934
-4.458515
-5.856705
-6.968472
-3.634401
-5.936500
-4.241348
-4.936445
-3.338405
-3.681056
-2.385758
-1.405144
-0.664794
6.147777
4.439310
1.631026
-1.607935
-4.110177
-8.741418
-7.000213
-7.396269
-8.924136
-9.795002
-9.388101
-5.060838
-3.556837
-7.289461
-0.595446
-4.633907
0.727414
-0.738815
4.141158
0.907406
-8.253855
6.680123
18.918487
50.380234
83.761055
97.027437
97.561011
111.911246
102.673834
117.495175
106.430194
75.294805
65.807463
45.954397
41.109714
23.710866
23.642403
31.064521
23.482657
11.103132
11.070635
6.103077
3.650064
-5.844722
-5.761396
3.460828
1.148222
5.426970
3.151501
3.053244
2.925874
6.486129
0.901199
0.849064
-3.797284
-2.096878
0.667831
-1.734367
1.630338
-0.442827
1.171805
2.260446
-0.247428
1.357954
0.403945
-0.459216
0.014557
-0.260871
-0.113381
-0.175558
-1.102771
-1.946712
-2.302919
-3.425722
0.408801
-2.395266
-2.632421
-4.042535
-4.415309
-6.085445
-2.169516
-2.351798
2.481792
-9.732209
0.890278
2.848302
12.944732
59.225301
77.664445
95.331102
96.139835
113.962343
101.241949
102.942653
97.160676
82.947634
58.450379
46.135359
38.646748
21.213479
23.691856
21.153554
11.156945
6.149542
-3.734999
3.609245
-8.524115
-10.755917
-8.176192
-1.185019
3.295094
14.089608
-3.188152
-3.073779
-8.787722
-4.666025
-7.979167
-4.197644
-8.588772
-3.598828
-4.672110
-6.652725
-1.672708
-1.472555
1.214717
1.730289
-0.850650
1.081431
0.765770
-0.468381
-0.085780
0.080061
0.085651
0.150200
-1.394347
-0.742792
2.167666
-1.779605
-0.396579
-2.261705
1.535720
0.582180
1.866882
1.997891
-2.075554
-2.260363
-7.426320
-2.590888
0.949611
4.787082
20.805409
68.954003
87.801052
109.983505
117.486027
113.743035
121.672158
100.045416
42.842610
16.080878
-11.080371
-16.055464
-23.576959
-28.384553
-21.029709
-23.440545
-25.736767
-25.611099
-32.843967
-6.005422
-20.317871
-3.500720
-8.073853
-14.687719
-7.706480
-9.650992
-3.088453
-0.965432
-10.516026
-13.724394
0.901199
-4.071069
-5.293509
3.531454
4.554629
-2.940217
1.608503
5.040573
1.961919
0.971652
1.315995
0.209783
0.414863
0.214710
-0.007108
-0.706036
-0.110943
-1.532000
-1.989472
-1.369570
-2.968250
-4.144959
-5.525500
-5.158461
-1.583354
-5.170500
-5.574778
-7.432341
-9.224515
-3.889343
-14.261473
-8.000445
-8.340889
0.927752
12.944732
58.889936
86.370548
97.314110
98.402996
103.599198
103.727612
105.570748
89.520300
80.546660
58.560976
43.680221
41.220684
28.607751
18.694842
13.633277
11.146390
1.193473
-6.183818
1.174168
-10.904861
-3.599181
-12.889655
-12.603795
-5.638361
-11.980102
-7.389223
-1.048473
-8.798361
4.612157
-7.968528
2.453868
-2.355373
0.691556
-3.320171
-3.029656
-4.979000
-2.389337
-0.413294
1.665988
-1.387357
1.087276
-0.163367
0.087438
0.097736
0.026068
-0.083247
1.045878
-1.029671
-0.749900
-1.517723
0.372396
1.248227
-0.442827
-1.510463
-2.785468
-3.041398
-3.303280
0.729897
-3.809188
2.503733
-11.392696
0.948370
-2.832562
14.889063
56.280867
79.432007
92.260680
106.072583
104.554855
116.473817
109.575234
103.984413
80.229529
72.969300
55.988758
41.030504
36.166948
26.076113
26.000457
11.124796
11.081467
3.711929
1.254976
6.006490
8.274243
3.493581
3.431715
7.759739
5.414896
5.227759
3.038687
6.756033
0.952094
4.370552
7.387645
-8.320806
-25.791486
-36.468102
-36.761440
-31.032976
-19.676226
-16.585719
-11.832177
-8.457262
-3.996236
-1.406518
-0.580349
0.006037
0.053371
0.111285
-0.177997
-1.144273
-3.622272
-0.338925
-4.248908
-4.755659
-4.319389
-2.632421
-2.905149
-1.901454
-2.040846
-5.061452
-7.000389
-9.290426
-11.557503
-8.383445
-8.702611
14.994638
61.304771
69.531732
89.230499
96.239876
110.250765
104.137197
110.426470
97.253653
75.515541
53.573382
46.222407
31.216926
21.213479
18.677222
16.150385
-1.287428
6.108623
-8.623522
-1.263045
-10.894222
-15.456050
-12.889655
-14.888152
-3.384731
-9.798417
-9.436695
-3.063057
-2.962980
-8.383445
2.600472
-4.168000
-0.793670
2.115283
0.625693
2.957860
-1.647689
-1.433239
2.804498
1.654297
-0.284063
-0.650497
0.425849
0.080625
0.147605
-0.039311
-0.277214
1.706651
1.056418
-0.257834
-2.237635
-1.827220
-2.089101
-1.378964
-0.496012
-0.552666
0.644246
4.681147
-4.967883
2.336332
2.540124
-2.608658
-2.725941
-2.843224
15.015242
62.782257
86.560784
94.743741
111.724630
109.604539
110.086530
111.982650
94.294249
84.832891
67.959312
48.435838
31.154563
26.101331
31.154563
16.174644
20.994873
11.081467
-1.173549
3.671899
3.631868
-3.486504
-8.032106
1.171808
-5.493563
3.249758
-3.063574
-0.961963
0.991816
-0.881029
-0.832468
2.456424
-0.727253
-2.072000
-3.160435
0.600800
0.547423
1.357402
1.907589
1.575572
1.762810
2.156466
-0.362511
0.063307
-0.021278
-0.542583
-0.803537
-0.889331
-1.144273
-3.105471
-5.676508
-3.457639
-4.807633
-2.389337
-6.891526
-5.244972
-6.938584
-3.420961
-12.275698
-13.298673
-5.922976
20.441834
43.685714
47.621691
79.216169
112.217311
134.338397
134.168887
150.923137
149.723368
149.640909
132.277672
105.243607
95.515598
65.980159
46.004787
46.309455
36.286858
26.215203
16.211445
18.571502
-1.282551
-11.053806
-8.565535
-6.065240
-1.230127
-12.876661
-5.751010
-10.064389
-9.777139
-11.538320
0.973174
-4.873536
-0.954598
-7.894056
0.791485
-2.333928
-4.995181
-1.987234
-1.801377
-1.640540
0.449681
-2.791668
-1.648228
-0.277967
-1.829889
-1.002350
-0.397235
-0.100791
0.120092
-0.488052
-0.469132
1.917321
-0.788995
0.953456
-1.827220
1.255506
2.348266
0.538734
-2.797372
0.643005
-6.007689
0.737345
-6.953443
-0.805875
-4.380566
-0.889122
-2.850333
22.921450
67.676609
88.298790
103.452101
102.590359
103.004925
114.935874
109.902650
106.638880
72.898525
63.142161
50.819195
48.482636
31.094535
28.582772
23.573941
13.600287
11.081467
6.121187
-1.167768
-3.543369
-8.174046
-1.114582
10.171552
7.734435
-1.032492
-11.331018
3.035048
0.993057
4.593909
0.892510
7.311818
-3.773476
-2.061338
4.512457
-4.032752
-2.612865
-0.439358
1.925699
1.587645
1.821852
0.194887
0.374832
0.313907
0.000000
-0.414194
-0.119477
-0.175558
-0.675517
-0.286501
-1.007914
-1.150880
-3.904472
-3.363256
-4.766222
-6.379859
-5.702445
-3.391317
-7.900111
-0.807081
4.162048
-6.270899
-4.660096
-8.713250
19.114259
61.165916
86.465879
91.337099
96.540000
101.782079
103.830008
101.008086
87.484474
68.018730
58.339783
43.639052
26.190518
18.694842
16.150385
3.696509
1.195744
-1.280113
-11.085722
8.470896
34.888586
65.171133
54.800687
58.087834
