97.489980
118.817911
128.676650
114.526191
104.591658
113.037149
115.345577
116.447135
102.208258
105.360054
103.569945
101.437593
93.680697
75.499158
61.061817
51.741198
49.084645
54.153523
39.608325
46.766006
46.675021
41.555883
34.151641
36.484957
26.065273
18.855417
2.265199
2.265199
4.436058
-0.018830
6.169229
3.992452
-0.016782
3.610856
1.723831
4.822173
1.517256
2.761804
6.456378
8.021824
6.285953
3.585271
5.342300
2.552713
2.534726
1.096274
1.693476
0.252808
-0.093813
-0.459686
-0.738230
-1.619007
-3.737898
-4.395318
-2.551726
-3.930198
-3.452336
-2.671688
-4.033979
-9.203870
-9.992773
-8.139530
0.012615
34.504071
84.974707
133.992935
144.993726
142.296304
135.592744
145.559711
142.540060
139.920032
138.178288
139.815170
137.589406
143.729528
145.217851
120.378026
102.077490
82.629753
71.798344
67.419665
52.639860
49.428681
47.360638
32.350362
36.688898
22.043009
33.915314
12.067398
-2.348513
-2.269298
-2.241339
-6.573760
-12.744420
-10.171588
-1.954765
-1.870889
-1.784684
0.015121
-9.646329
-3.009537
-4.134086
1.277975
-5.807308
0.009259
-0.887682
0.780062
-1.954551
-0.524222
-0.828442
0.294005
-0.158431
0.040307
0.502302
-0.001710
0.306301
-0.875762
-0.004771
-0.647580
-0.749067
-0.857803
1.874592
-0.009288
-0.010196
-0.011125
2.761804
-0.013257
30.115852
98.073163
115.982840
122.825982
141.449631
136.080622
138.791779
146.906904
141.636386
125.404607
125.452036
135.289632
129.348256
122.025416
92.825365
85.006058
66.918538
60.112879
49.707182
49.898732
-0.021701
-36.923026
-43.828832
-43.570000
-43.224891
-49.519715
-46.683217
-48.060293
-28.824430
-15.227574
-8.421520
-6.162081
-7.768540
-3.729205
-1.790512
-1.667278
6.185788
1.419905
3.890698
4.761240
5.356402
2.823085
0.804929
3.299926
2.112920
2.846994
1.458663
0.295737
0.150765
-0.347110
-0.209689
-1.630739
-1.735549
-2.639685
-3.774038
-5.176338
-7.502465
-5.604728
-7.197575
-10.144178
-6.077142
-11.898276
-13.973154
-14.959494
-8.106767
5.176627
56.121794
80.569796
103.664158
109.428004
122.032088
125.577154
117.120564
120.110876
114.387923
110.197524
111.711523
85.743583
76.675490
64.128611
49.522741
42.057562
34.705574
32.228054
19.709298
17.297654
14.716549
9.705158
4.834917
-11.849255
-4.657060
-15.989134
-6.735467
-2.150474
2.133909
-6.088637
-11.772746
-7.561366
-3.575873
-5.069177
-3.187395
-5.910249
1.384670
2.502447
1.159424
-2.054723
-1.755173
-3.777683
0.630689
-2.063896
0.003501
1.111853
0.001222
-0.056288
0.200338
-0.001984
0.327670
0.896752
-0.004855
0.650592
3.068992
1.721954
0.961641
-0.009415
1.177714
-1.302410
-1.386982
-1.500550
-3.214334
1.700087
5.395388
33.830903
73.987276
103.701696
121.549600
132.658917
121.979692
125.668063
118.603471
129.590660
114.590315
95.828908
69.196453
66.918538
52.193745
42.288504
32.302169
39.799855
32.208810
14.796387
14.724629
-0.021321
-0.021215
7.129364
-0.020519
-2.314859
-2.252034
-4.378809
-2.114302
-4.099720
1.930406
-3.767700
8.823716
6.654263
-0.013658
2.852433
3.897863
6.013996
4.331007
3.786046
5.593506
-6.761019
-12.456144
-11.192670
-6.668997
-3.067480
-0.402685
1.693170
2.399237
0.002734
-0.412388
0.004578
0.628318
-0.719931
0.007250
-3.696251
-7.082545
-5.572669
-6.030215
-7.886050
-5.544376
-8.942217
-9.716740
-10.378605
-8.998394
20.597309
64.396897
88.960056
105.085115
108.141282
113.300934
106.847117
112.279477
104.579787
102.097935
82.894585
71.321052
54.266155
47.047879
39.622678
22.233583
24.654649
14.857783
2.475335
9.761693
-2.390451
-2.383461
-9.437635
-11.591152
-6.847959
-4.446439
-10.805112
-2.087567
-8.096103
-7.861569
-1.856910
-7.148586
-3.379294
-1.579655
4.434078
-8.125448
-1.227844
-2.270024
-1.004176
-2.608412
-2.926980
-3.120695
0.004433
-1.529160
0.253698
-0.351538
-0.000063
-0.226158
-0.246467
-0.673663
1.826098
-0.004919
-0.005890
-1.559048
2.579468
-0.008634
-0.009542
-1.193674
-3.870220
-0.012075
-1.490885
-6.472183
-1.742185
-1.821924
14.969478
63.068679
97.140690
115.393315
116.916125
111.367652
105.321209
119.458491
128.685336
114.477751
98.190928
86.249710
54.785665
47.402897
42.329205
29.758158
27.250058
22.248538
19.621119
12.195380
4.836734
-2.428427
-4.739699
-2.343855
2.265199
-0.019674
-4.369185
-0.018366
-2.046644
-5.873797
-0.016381
5.295076
-1.681776
1.536251
-1.449807
3.883533
2.394517
1.075613
-0.008402
3.183721
1.999088
1.626498
0.825202
0.572395
0.824982
0.267996
-0.434082
-1.020678
-1.247719
-2.908609
-2.627953
-3.774038
-3.648632
-0.822446
-3.696251
-4.099649
-4.465521
-7.308678
-3.930194
-5.525613
-6.004062
-11.387944
-12.094555
-10.857401
3.763114
48.730935
71.260982
99.002085
99.815814
118.366527
152.462738
168.916967
182.409049
167.556737
149.853182
125.889926
91.598777
76.967032
59.479544
47.092559
27.169818
24.725226
17.198810
9.780537
17.001122
-4.788113
4.754650
-11.649812
-2.262308
4.485519
-4.306025
6.301058
-4.039239
-3.880103
-7.467552
-5.315254
-5.019962
-3.126549
-5.797672
-4.042686
-6.112338
-3.374764
-1.993877
-3.433573
-3.613436
1.838693
0.481315
0.365136
-0.232987
0.289948
0.028620
0.271887
-0.495623
0.351415
-0.947940
-0.005172
-1.390633
-0.006987
-0.007811
0.985385
-3.293651
-2.415563
-2.612850
-2.800513
4.514070
-3.281701
1.723831
-1.841255
7.514728
49.088912
81.809808
107.610358
118.080113
107.372076
114.121906
119.947073
118.059058
110.036331
93.826423
76.983901
52.193745
49.755070
42.492010
29.844330
29.729434
24.579523
14.724629
12.219293
2.395792
11.968212
-0.020836
-4.667521
2.262825
-6.702615
-10.858351
-6.277395
-4.056413
-0.017099
1.844926
5.259250
1.633603
-0.013721
-1.432893
-1.319324
-0.010471
4.292765
3.776485
0.793057
-0.005911
3.768080
0.815662
1.185530
0.583204
0.200921
-0.492878
-0.844321
-0.307543
-1.258506
-1.574890
-3.120695
-0.733910
-1.656884
-2.763088
-6.153935
-1.111350
-2.438521
-6.569884
-4.183302
-9.068957
-8.153695
-10.463098
-12.686137
3.777279
47.008026
81.438523
99.444059
102.427381
108.743403
103.041625
100.788064
112.703267
92.555184
78.696892
64.067477
46.869160
42.017583
24.748751
29.609403
14.886030
17.314128
2.475335
0.021501
-9.662788
-14.307547
-11.778863
-13.870998
-2.252988
2.245347
0.019057
-2.068928
-8.058577
-7.730230
-3.683524
15.965830
41.912131
43.779787
31.969956
31.884196
24.361614
16.756948
11.826825
8.351527
4.307627
0.005096
0.004122
-0.678667
-0.207359
0.000849
-0.000296
0.305277
-0.263382
0.375159
-0.492934
-0.601670
2.113731
2.393174
-0.008106
-0.008782
1.106481
-3.675628
-5.291058
-4.237782
-1.531963
-1.664862
-7.009931
-7.374832
13.230148
49.388235
82.192992
112.719580
113.332518
105.360054
105.872051
117.953911
115.189315
109.928557
95.828908
61.899921
51.942330
44.777462
39.838160
27.250058
27.408029
12.386680
12.279074
4.865354
7.236842
-0.021110
2.348304
4.641166
4.540997
2.208213
-8.680791
-4.181522
2.001638
3.849354
-3.724393
-0.015537
-4.987322
-6.164898
-0.012539
2.585316
2.342048
-3.243201
0.923650
1.578855
-1.304019
0.529496
1.984738
0.572395
0.429911
0.042930
-0.640880
-1.044142
-1.313389
-1.272567
-1.603013
-2.542345
-5.897990
-3.377285
-3.733776
-4.090267
-2.246622
-6.135802
-3.972379
-7.050893
-10.632034
-3.281004
-8.740292
-1.800993
5.685804
35.344931
73.635143
97.652958
104.718949
116.011223
98.665145
117.427327
115.551944
99.860509
83.534081
66.721345
51.899149
34.672647
32.197477
29.750534
27.299198
17.231758
14.716549
-2.402100
-2.397441
-11.966574
-14.124478
-4.619616
-9.053000
-4.423037
-12.871160
-2.064269
-10.030805
-5.772253
-5.519146
-5.294161
-3.309087
-3.065703
-5.713240
-2.616379
0.010626
0.009694
-0.959908
-3.292853
-3.472653
0.583269
-0.898649
0.002921
-1.008946
-0.300203
0.172093
-0.001478
0.277807
-0.003399
0.996921
0.614975
-0.720071
1.631325
2.737103
2.017691
5.595527
-1.237169
-0.011674
-18.229504
-39.561758
-56.455487
-52.475185
-47.349506
-38.008000
19.721058
68.043273
87.390489
106.558275
112.325653
109.901182
117.594660
108.419734
105.144957
93.644413
67.177160
57.166562
39.608325
37.418627
27.250058
14.882496
14.868144
7.365816
12.159512
-0.021363
-11.998178
4.703176
-6.954864
-2.290695
8.834108
4.278650
-6.262981
4.001992
5.767978
-1.865418
-1.766348
-0.014524
6.080620
-0.012434
2.571006
2.327738
-1.075274
1.826893
2.307191
1.268808
1.035080
-1.196381
0.816832
0.394085
0.023850
-0.619618
-0.425922
-1.322770
-2.146944
-1.085867
-1.919397
-4.562643
-3.396048
-6.573128
-2.068764
-3.423980
-3.705210
-5.319224
-2.812958
-10.714199
-9.927973
-3.496305
-5.469930
1.913405
55.432452
82.472961
95.636169
106.900295
112.020263
110.022603
111.045866
105.924532
97.989539
71.184683
69.125979
57.002024
47.003199
32.258631
34.639719
19.841069
19.746947
17.198810
-2.409090
2.435028
2.408946
-7.037790
2.321219
-9.043619
-6.615944
-10.687793
-10.382763
-14.033628
-5.744130
-5.526177
0.015473
-1.628582
-1.521408
-4.274701
3.946117
4.777199
-4.362326
-3.771302
0.007167
0.675738
-0.556840
0.003873
0.646859
0.544536
0.235562
-0.259271
0.170958
-0.002597
-0.793960
0.510501
-0.005531
2.163887
0.816801
-0.932709
-0.009035
1.118353
-2.458869
2.637785
1.396160
-4.626966
-3.339443
-0.015474
-9.238597
17.230233
57.918264
90.730338
113.227326
107.262404
120.925416
108.511851
106.910911
117.824348
114.815444
91.268019
64.563682
59.595655
47.038959
44.863655
39.646631
34.855453
17.249434
-17.208669
-48.696252
-74.799003
-71.452512
-63.338867
-50.875231
-54.348097
-33.291842
-21.433870
-16.613758
-6.003525
-3.859126
-9.214601
-8.746672
-3.286512
-1.522297
-1.418395
-1.292745
1.158718
3.174179
0.907029
3.107235
1.278348
1.025540
2.780006
-0.002343
0.415581
0.038160
-0.309353
-0.425922
-0.998368
-1.735549
-2.176473
-1.291808
-2.256874
-3.367904
-5.661057
-4.137174
-3.402887
-6.182730
-2.635100
-8.477503
-10.664900
-3.290365
-5.244946
-1.803323
13.343904
53.643707
78.618303
100.217512
111.142821
112.255352
108.062544
116.000643
116.003319
97.801459
73.709232
61.486801
49.522741
27.247446
34.837284
22.275932
12.397044
4.938792
9.827650
2.453996
4.853803
4.806587
2.378123
-4.605575
2.297509
-8.837229
-2.129505
-4.123487
-6.011299
5.806026
-7.326832
-3.477584
-8.235819
-3.046981
-1.414234
2.606322
0.010543
-4.315420
-4.727970
0.810886
-2.038920
1.676039
0.878217
0.613808
0.182568
-0.269834
-0.120297
-0.540533
-0.879268
-1.991698
-1.563943
-1.251088
-2.928807
-0.007325
-0.932709
-2.064295
-2.266394
-1.249250
-2.680216
-2.853443
1.529128
3.329429
-1.776014
-0.016255
13.397618
54.116730
90.835716
107.296147
107.379759
119.320276
104.108810
130.673709
115.994030
98.095132
83.947554
62.019650
57.331783
39.608325
32.239930
24.794923
24.699189
17.299675
9.751937
9.723255
-0.021194
-9.554632
-0.020751
9.226097
-0.019864
-8.863242
-2.165045
-0.018218
1.977894
-0.016846
5.445545
-0.015284
3.205410
4.506905
6.958541
3.797551
4.617829
2.060621
4.543377
3.011628
3.156451
0.996921
2.281887
0.773841
0.585857
0.021538
-0.821641
0.002071
5.796907
11.982086
14.671941
15.970314
17.071335
13.884870
9.574849
4.221272
8.105186
10.071131
6.745970
4.335072
-7.790005
-4.984808
-7.064154
-5.519146
17.236320
66.026216
83.037201
115.521443
105.508855
108.442791
106.736954
104.372903
108.965989
105.033900
73.709232
56.731616
47.137239
34.705574
24.866378
29.665855
24.772276
12.338179
2.482448
4.891576
0.021356
-4.755350
2.361526
-4.600895
-4.493244
8.838289
-6.390960
-6.201129
-5.962084
-7.673942
-1.817302
-3.449501
-1.612273
-1.502769
-5.591283
2.587436
1.183134
-1.053103
-0.908651
-2.362335
-1.296488
0.004661
-0.823761
0.301118
-0.313591
0.000290
0.147869
-0.394574
0.311049
0.413150
1.044620
-1.960335
0.743194
-5.960076
-6.614845
-0.009267
-2.300078
-5.060594
-4.064812
-0.012624
1.548124
-0.014798
-0.015642
-0.016318
19.242392
60.059822
91.362605
113.354262
107.497114
115.671974
115.199657
109.177111
120.827915
100.548158
89.059263
56.836119
54.627629
42.207102
32.426647
27.197401
29.700710
24.627390
14.638520
7.315659
2.398167
-2.411512
-4.734888
-11.530249
11.274749
-4.412492
2.115611
4.102161
5.961438
9.565004
1.809310
-3.416433
-6.452978
4.485409
1.372416
-0.011019
1.149221
-0.009035
2.636790
0.736071
1.812793
0.992151
1.089109
0.975194
0.343929
-0.028083
-0.125813
-0.994423
-2.873861
-2.311191
-2.839128
-2.664303
-0.775848
-7.904005
-0.962238
-4.277894
-5.854236
-7.646652
-9.432439
-10.073319
-4.668424
-10.096960
-8.869343
-14.726192
17.257495
61.879744
81.053579
107.553557
88.303433
99.407691
99.777150
107.379106
114.029187
137.308369
131.075354
123.657205
111.822379
94.252624
82.086647
62.192195
59.479544
44.445722
34.211662
12.185129
0.021273
-4.774072
-4.703865
-9.212483
-9.006093
-4.394954
-10.652597
-2.047960
-3.978393
7.632211
-5.462900
0.015183
0.014313
0.013298
-8.350763
-2.532130
-7.012951
1.055100
2.736823
-0.771188
-1.277766
-0.521892
0.003563
-0.270265
0.001264
0.082412
-0.000823
-0.619812
0.967301
-0.003821
-0.548510
-1.299207
0.752692
-0.007494
-2.882845
-3.199958
1.151595
-1.275830
-4.093640
-2.920810
-6.337746
3.381898
-3.575225
-0.016339
23.180341
72.075067
103.943142
113.862008
114.577930
110.430988
118.114888
104.745593
92.097323
102.900292
74.284516
64.314641
51.992613
49.515632
34.687879
27.355372
27.144744
12.338855
12.219293
4.846274
2.402916
2.357802
-7.062971
-0.020308
-9.036089
-0.019294
2.103738
-0.018218
3.944753
5.689161
-1.831590
3.381898
1.588489
7.460703
-0.012033
-0.011019
-1.159846
-0.008993
6.146157
1.478686
0.607852
1.454534
2.167075
-0.002027
0.720122
-0.013979
0.130406
-0.232987
-1.096798
-2.299459
-3.976742
-4.055683
-1.530511
-3.489861
-6.737456
-6.379251
-6.998869
-3.803641
-6.792791
-4.309855
-9.421013
-6.745189
-1.752065
0.016260
19.243801
56.024960
95.922673
107.553557
103.974288
99.614574
109.056985
104.993555
102.295417
90.641905
76.675490
49.475711
56.947942
34.705574
27.247446
24.819327
12.420590
19.671649
7.361843
-2.397441
2.439770
-4.736628
-4.675782
-13.842834
-13.547107
-15.397552
-12.786666
-10.277175
-7.927238
-9.526331
-3.613317
-10.280029
-9.632246
-4.485624
-2.747431
-2.518089
1.173650
14.455168
20.713259
19.868254
19.970612
16.034798
9.193875
5.897370
2.709073
0.197584
-0.911059
-0.001837
-1.305960
-0.444608
-1.672050
-0.654830
-0.006671
-1.717840
-1.915127
-3.214372
-0.010259
-1.278247
1.343923
-2.935245
-1.589955
3.386668
-0.015685
5.538692
19.218458
66.383681
99.784756
116.010801
110.289901
112.924404
117.992742
121.412822
112.151663
100.646349
71.251965
56.505677
59.423247
32.333289
42.125699
32.302169
22.183924
24.555590
12.231249
12.123643
-12.082165
-0.020857
-2.355936
2.277071
-6.724236
-4.388432
-2.131216
-4.109343
-1.993485
-5.693619
-0.016001
-3.406809
-1.604453
-0.013088
2.704565
3.711569
-0.009985
-3.026987
-0.007684
2.185383
1.197259
0.470136
-0.003166
0.680693
0.092602
-0.197151
-0.435907
-1.031948
-1.103829
-2.369851
-2.932984
-2.711209
-2.341243
-4.399476
-4.868753
-5.384958
-7.069280
-2.569574
-2.714668
0.012863
-4.738732
-1.693819
-8.928003
1.870727
30.968152
68.665814
96.355244
116.029230
108.973792
109.119853
121.267790
110.305667
114.360668
93.359234
61.428018
59.197383
37.218064
44.530380
29.863439
27.376826
22.212408
9.846495
9.808805
-7.269805
0.021273
11.926121
-11.661544
-6.854990
-2.220370
-6.517514
-10.547010
-10.195052
-7.870950
-7.580128
-5.413684
-5.132454
-4.773885
5.973854
2.752692
5.031606
-2.293427
1.033760
-0.873703
0.006608
1.866980
-1.504582
-0.375110
0.002216
-0.116494
-0.007249
0.118721
-0.931457
1.357623
-0.004011
1.705315
1.345127
0.769313
-0.884382
-0.983452
-3.243201
-1.198507
3.826212
1.360544
1.455521
-19.186931
-46.064630
-51.907747
-52.332577
-15.501058
22.194975
54.415292
81.995739
81.963998
100.003590
91.252284
102.673381
114.140059
95.268505
63.941081
64.439161
46.811498
37.310896
27.381701
27.381701
32.177690
17.182446
21.968546
9.723255
4.789035
2.353053
-0.020540
-0.020139
8.967958
2.158350
8.413436
2.023008
1.949401
-0.016677
-0.015832
6.702067
-0.013975
-4.425167
-0.011885
2.437447
-0.009922
-0.008761
-0.848137
0.709952
1.182949
-1.412594
1.024622
-0.215055
0.243616
-0.164247
-0.628550
-0.794476
-2.253157
-1.951320
-1.778782
-2.767497
-1.581996
-0.897002
-1.975155
-2.162374
-5.948091
-6.487760
-2.733390
0.013029
-6.351172
-1.696148
-7.148586
-7.401883
27.362744
70.520394
98.560112
106.324324
102.194956
111.968843
109.498958
114.987725
107.062393
83.214333
66.657861
51.849768
42.217476
39.735563
24.889904
17.347076
14.829536
14.787166
2.458738
2.461109
0.021190
2.394720
-4.647699
-2.273957
-2.218040
-10.898968
-16.867500
0.017959
-11.730499
-1.875549
-5.357438
-3.374613
-7.872129
-1.458501
8.191553
-1.230174
2.275810
-2.021960
-0.848074
-0.733910
0.005282
0.495541
0.003231
0.486325
0.221915
-0.021747
-0.389184
-0.002174
1.096274
-1.891721
0.569861
-0.691075
0.776436
-2.673839
-0.993118
-1.099437
2.380208
-0.011442
-1.389398
-1.493301
-0.014123
3.420058
3.596546
-0.016381
38.884617
81.139235
94.409232
109.931126
112.618332
114.361406
111.970451
114.269639
103.909169
81.082925
69.196453
59.365778
49.659295
42.247803
34.654364
24.794923
17.266181
17.232687
14.738981
12.099730
4.793805
-2.387349
-4.672333
2.258076
-2.254450
-13.054826
-52.717937
-62.691518
-62.873157
-59.959523
-44.570620
-40.545406
-33.214443
-13.098886
-8.060311
-0.010787
-2.237523
2.952058
-1.684157
3.503183
-0.004982
-0.456689
1.290698
1.406750
0.267700
-0.246371
-0.797772
-1.384368
0.003376
-0.489274
-4.190369
-2.814404
-4.000590
-4.505063
-4.005835
-4.371708
-1.192896
-1.281431
-8.252188
-7.391119
0.014168
-5.146516
-7.204875
0.016530
37.039593
75.157971
103.329272
108.611461
95.834588
107.620570
112.618008
110.089381
109.389158
78.395948
66.594378
54.628274
39.509793
42.257455
24.819327
14.843659
19.822245
9.884185
4.910462
-2.409090
-2.374142
0.020921
0.020590
4.613002
-2.222700
-6.510483
-8.415068
-8.096103
-3.894145
-3.711607
-5.343377
-3.365253
-1.563346
-2.897206
0.011828
1.244780
1.128601
2.977268
-0.843414
-1.418180
0.597495
-0.470635
-0.347151
-0.454005
-0.260138
0.038160
-0.001245
1.291276
1.103439
0.949221
-0.005256
-0.698324
3.202842
-3.610595
-0.008740
-4.465230
-1.222671
-1.316908
4.141480
-4.497238
-4.850387
-3.483799
-1.829173
1.856798
42.932997
81.522420
104.901143
112.834353
106.682319
114.361406
121.801322
119.151413
119.232607
92.825365
71.807536
57.166562
37.382717
39.799855
29.671986
29.671986
27.171072
22.140849
7.294164
-0.021405
-9.612248
2.350678
-7.019728
-6.875586
-2.247201
-0.019126
-0.018513
-0.017880
3.882743
1.840177
-0.015621
3.324659
4.678869
2.857203
2.623475
3.639917
-0.009605
3.814728
1.645635
1.359437
-0.004940
1.720930
0.624864
0.717054
0.229457
-0.316762
-0.703601
-1.816608
-1.970965
-1.525675
0.005427
9.356532
22.346254
23.042855
26.470628
26.861729
20.868866
25.154754
12.577855
7.534766
3.272068
3.465653
-3.613317
-5.652730
46.951594
81.720642
99.333566
108.611461
111.432538
110.248290
103.752252
110.305667
107.269277
81.310781
64.495409
47.181919
42.217476
32.289208
32.197477
29.835213
7.460849
14.730673
9.799382
-9.653406
4.830195
0.020942
-6.988574
-6.862021
-8.940424
0.019181
-8.443212
-2.020001
0.017234
-1.852250
-5.322284
-11.683735
-3.145271
-2.901887
5.342548
-1.216194
-3.353672
-1.975155
-1.689647
-1.404139
0.599866
-0.926732
0.698797
-0.212019
-0.086205
0.033242
-0.303148
-0.778368
-1.469205
1.447368
-2.381456
2.791731
-1.592731
-0.007895
-1.987305
-3.300858
-0.010534
2.585316
-0.012117
-0.013046
1.605110
-1.744601
9.003060
5.646170
47.067350
85.800537
107.366067
105.736790
109.022728
109.326385
121.801322
115.189315
106.747773
81.478066
61.421004
54.469594
49.371970
29.786882
22.377764
12.350812
14.810738
12.171468
9.761498
-14.638101
7.193851
2.336432
2.288943
-2.297944
-2.232703
-6.471987
-0.018366
-4.032353
-0.017099
-3.734017
-0.015516
-6.673838
1.541000
2.871513
-0.011674
3.596926
-1.094604
-0.008402
1.626555
0.669587
2.761895
-0.003736
1.262015
0.170958
0.109709
-0.058247
-0.712982
-1.191431
-1.209291
-2.534098
-2.476676
-2.898836
-4.886534
0.912839
-3.009165
-6.689060
-3.613810
2.625209
-2.770834
-9.040793
-3.224839
-10.406769
-9.045322
5.685804
39.458290
75.592913
95.424584
110.903030
98.787039
105.439240
96.583234
108.225443
95.448841
81.000434
59.140950
54.524811
39.660307
29.891666
22.339457
62.133412
76.821261
95.815599
80.922848
58.463764
53.076334
45.081966
21.005442
25.203240
8.941936
4.372200
4.211666
2.041440
-5.842561
1.884953
0.015701
-5.026993
0.013754
-5.788291
-4.007533
-4.878300
2.242759
-4.868753
0.007353
0.006173
0.585640
1.865652
0.003066
0.401336
0.092469
0.035616
-0.001309
0.258812
-0.760277
1.483194
1.197259
-0.006143
-0.007051
-0.007980
-0.008782
2.189409
2.380208
5.172351
-5.540726
-8.981490
-4.908044
-1.744601
-1.831590
7.476485
45.105409
73.454494
113.553493
120.978733
113.595497
118.438708
116.756409
110.168628
94.988304
75.944581
61.720327
46.811498
44.820559
29.786882
27.223729
17.266181
22.140849
12.255162
-0.021490
4.808115
-0.020983
-2.372851
-0.020308
-2.281030
-2.232703
-4.316254
-6.255774
-2.024897
-0.017015
-7.403640
-0.015474
1.635977
6.109302
1.398535
-3.927876
5.882478
-3.235994
-2.810774
-1.578296
2.619638
-0.546094
-0.003610
0.287305
0.154337
0.062009
0.348632
-0.611676
-0.921029
-1.265537
-3.238913
-1.905336
-1.479026
-3.320997
-1.853463
-4.118411
-3.402887
-3.684118
2.662982
-4.211425
-3.028259
-8.224087
-10.449016
-1.807982
5.721163
51.474061
84.341646
108.265337
109.551820
112.490442
122.851996
123.101476
115.664788
102.492898
86.319595
56.623452
54.731736
32.319785
37.394453
32.350362
17.347076
17.347076
2.480077
4.915184
-2.402100
-2.378802
-2.346183
-4.614936
-4.526007
-6.622975
-6.433144
-4.156251
-8.058577
-9.714042
-9.244765
-5.280100
-11.650869
-9.252026
0.012573
0.011662
-7.210103
0.009632
-3.827590
7.284145
17.850862
16.857901
12.442676
9.019294
4.937755
1.251036
-1.159850
-2.416110
-2.321322
-2.753387
-4.124663
-2.458277
-0.006396
-1.650474
3.671318
1.013878
3.367639
1.220453
3.955185
2.799964
1.498261
-1.667278
-3.522294
-3.652215
11.352029
53.211552
88.461820
105.978895
113.207977
107.027197
108.286723
117.834161
112.451597
99.566242
85.662977
73.853465
42.247803
47.175436
42.166400
29.585814
34.486789
7.394476
2.429034
9.723255
-0.021215
7.115034
-4.710828
-6.897207
-0.019949
8.786304
-2.165045
-10.366426
-2.007983
-5.794519
7.323514
-0.015431
-1.657613
1.507758
-0.012434
5.181912
-4.734104
4.225839
0.918902
-0.006966
1.316508
-0.004729
1.615762
0.845492
-0.001309
0.105168
-0.365873
-0.618707
-0.942122
-1.716787
-2.698345
-3.202818
-2.249843
-1.666245
-1.881546
-4.118411
-1.122999
-1.227844
-7.928296
-2.822319
-10.681333
-6.623231
-1.731097
1.851759
9.512642
59.461132
88.657103
102.800606
111.742296
101.454741
108.394024
116.115837
104.022987
92.912539
81.310781
59.197383
42.217476
42.257455
27.428578
32.105747
24.772276
12.373498
7.390130
0.021522
-2.392781
-7.157313
-4.699184
-11.567688
-6.798744
-6.651098
-12.828913
-6.215191
-6.018330
0.017006
-3.678844
-3.491625
-4.935593
-1.507429
-4.239548
5.220056
-4.737580
1.088294
-1.886226
-2.397489
-0.666344
0.004888
0.003811
-0.309873
0.001595
-0.272059
-0.067658
0.178082
-0.002618
-0.822831
-1.034554
1.268808
-0.006396
0.823925
-2.803567
-1.048694
1.132600
-0.010956
-0.011716
-1.428060
3.086161
4.951146
5.259250
5.467040
19.026992
51.302289
95.185695
110.592611
102.208258
60.711601
52.980956
54.467948
48.222671
46.129115
24.507723
4.913054
2.467025
2.457527
12.398637
7.380146
17.282928
7.387311
4.870124
-0.021553
-2.430843
-0.021047
-11.746216
6.878583
-9.007281
-6.608922
-0.018788
-4.147839
1.973145
-3.844690
-0.016212
1.728580
-0.014481
-4.540481
1.391412
1.272690
2.342048
-5.291196
-4.595302
0.762190
1.273578
2.570595
-0.003504
1.089922
0.681507
0.100482
0.000849
0.211020
-1.285245
-0.431027
-1.624105
-0.638386
-5.258502
-5.083686
-5.618810
-2.059403
-3.416949
-3.705210
-6.663739
-2.822319
1.545899
-9.956138
-7.007866
-9.139178
9.524415
47.572348
82.849121
104.826798
105.170324
110.586512
110.812508
113.972132
101.406750
95.173772
76.238177
59.310247
42.177498
49.757892
29.863439
19.841069
24.795802
19.803420
0.021584
0.021646
-2.397441
-7.178405
-7.044820
-11.509029
-9.062381
-13.223216
-2.129505
-4.132848
-7.983526
-3.852021
0.016198
-5.230885
-6.566943
-9.153451
-5.656952
-6.452564
-4.728199
-5.384958
0.008265
0.007001
-3.320138
1.090689
-0.419377
0.883987
0.001533
-0.088929
-0.223420
0.182831
-0.864854
0.408401
0.524747
-0.005489
-1.491682
0.828673
-4.667291
3.052371
-2.285642
-6.215056
-1.336239
-2.839008
4.585722
3.305579
-8.758670
7.294831
17.079468
57.293247
90.519582
110.717152
111.030437
112.086153
112.778086
115.477250
110.609303
104.836010
82.970472
71.529750
56.891193
32.333289
32.084332
34.553819
27.039429
27.013101
4.898744
7.244007
7.179521
4.722256
-2.355936
-4.595343
4.464678
-0.019294
2.103738
12.284876
5.932778
-0.016761
-20.041791
-51.684463
-48.305923
-42.067340
-34.506286
-26.722529
-21.947458
-17.682497
-10.844787
-6.776030
-1.909885
-0.517098
-0.769900
-0.260965
0.123470
-0.009665
-0.109504
-0.919372
-1.665935
-1.782456
-2.232761
0.005924
-3.067701
-5.182261
-4.821825
-7.378336
-3.466164
-2.490006
-3.993471
-1.409574
-7.754809
-8.364870
-8.834147
-5.526177
1.930002
56.024960
75.073991
96.270922
109.786910
95.284823
106.412526
104.993555
103.921895
98.083579
71.321052
69.586819
57.056105
29.919892
27.402702
24.819327
19.878719
17.281180
0.021667
-4.858320
-7.227620
-16.662879
-14.110396
-6.883113
-2.234349
-15.413985
-8.508882
-14.460882
-7.974145
-7.645798
-9.162641
-1.719447
-1.614603
0.013319
-4.190332
-2.564893
-4.690674
-2.110889
-0.903991
1.553406
-1.287127
0.004598
-0.405398
-0.571016
-0.609788
-0.020969
0.166948
-0.001794
-0.644792
-0.427693
-0.004729
1.306968
-0.006692
0.845294
-0.008381
-0.009373
-4.628475
1.248946
-1.360402
-2.887127
-3.156592
-6.741057
5.295076
-5.578305
28.620582
57.918264
91.257227
115.493472
104.842969
110.313633
113.130151
118.193411
123.245007
90.204703
83.540436
57.001341
51.741198
44.691269
32.271049
19.716832
22.227000
19.640262
9.790180
2.414788
2.391044
-2.389765
-11.734218
-11.458260
-4.513541
-4.383621
-0.018640
-2.068391
-1.988652
-1.920994
-3.632968
3.410518
-4.814351
-0.013109
-0.012180
1.227576
-0.010069
3.059536
-0.889215
-0.006565
2.457106
2.462989
0.701183
0.481765
0.106849
-0.049215
-0.248065
0.002154
-2.112335
-1.866888
-2.874324
-5.428405
-3.114607
-7.882872
-1.956433
-7.509799
-10.566852
-8.873723
12.239058
35.044399
40.836903
47.532340
35.836969
35.386439
56.115895
100.030686
121.350344
129.483520
121.539395
113.313256
106.736954
124.201688
111.819666
83.693955
86.731033
54.628274
44.784356
42.137519
27.454454
27.350950
19.841069
17.264706
0.021625
-7.304959
-9.653406
-7.185436
-9.390728
-6.911236
-9.043619
-6.580790
4.277768
-8.264967
-15.947113
-1.901177
-3.627358
-1.707798
-8.095035
-1.495779
-2.775514
-1.253472
-1.157948
-2.101528
-0.897002
0.784804
1.293718
-0.531211
0.826280
-0.270265
-0.146782
0.084802
-0.302699
-0.207806
0.967301
-0.003842
-0.543678
-0.657246
-2.255826
-0.855386
-0.949624
-4.225164
1.139723
2.508996
1.336800
-10.140523
-1.570624
3.353278
1.749949
-0.016255
28.584671
61.765290
100.925238
104.445886
109.930650
107.487035
120.182285
111.325955
116.338908
95.642107
83.296166
64.127861
32.115451
54.311558
39.608325
32.053212
32.146571
12.255162
4.855814
4.817655
2.381546
-4.773383
-9.372182
-2.307610
-2.259283
2.163099
-2.136049
-4.114155
3.935213
-9.478560
7.189664
-8.530704
-0.014080
5.908527
-1.372484
-0.010956
-1.159846
5.057496
0.869039
-0.741818
1.819958
-0.500183
-0.367284
-0.002048
-0.108736
-0.098576
-0.802687
-0.956897
-1.075706
-2.358119
1.161513
-4.097929
-1.558594
-2.601381
-2.896673
-4.315420
-1.167267
-2.527450
-5.422419
-2.897206
-4.717639
-3.374613
-7.082917
-5.526177
17.405719
64.326810
90.072382
103.364825
110.727269
99.924900
107.277668
109.981238
109.177573
88.362172
71.593790
59.592408
42.417370
32.258631
9.940720
17.429445
14.928400
41.897647
66.213475
75.436437
77.568352
57.335120
51.834782
34.572230
15.831472
26.476282
8.536770
8.235250
2.003504
-5.659761
-3.603956
-5.125423
-4.823101
-4.471563
-6.910110
1.268491
-1.150958
-1.022815
-2.678719
-1.511789
-1.273086
0.004433
-0.391419
-0.519531
-0.266786
0.004722
-0.000971
-0.001942
0.332419
-0.003990
0.555615
0.662464
-2.320690
2.572303
-0.973787
-0.009373
-3.524278
-1.280663
-0.011948
1.436526
1.569493
5.080120
-0.015685
5.538692
23.065445
62.433424
97.930820
113.862008
112.251895
121.960072
125.322704
123.420358
111.049977
90.470532
76.241529
59.423247
54.416915
39.570019
32.022092
27.329044
29.643262
26.960444
7.294164
9.685012
2.383920
-0.020899
2.310313
2.272322
-0.019738
-2.189209
-2.123967
4.073542
-0.017310
-1.908913
1.773694
3.372358
-3.180651
-1.488469
-1.370068
-0.010914
-1.147764
3.009380
1.717184
3.574920
1.776967
0.467761
1.769526
1.111932
0.083105
-0.140783
-0.294869
-1.022567
-0.725472
0.486057
-0.580139
-2.081105
-2.369366
-5.252672
-4.903949
-5.396690
2.360799
-3.831764
0.012055
0.012884
-4.731701
-8.493921
-7.129824
-3.697565
28.998340
64.627754
94.260870
105.633158
97.752620
100.028342
116.839602
100.518083
99.956900
81.233194
66.721345
47.226598
39.735563
39.773192
29.665855
14.970770
12.408817
9.855917
-2.430059
-7.262774
4.849082
-7.122159
-11.685008
-11.509029
0.019927
-4.385593
-8.480738
-14.312986
-3.940949
-7.561366
0.015908
-5.097300
-4.759824
-5.947774
-6.804522
-3.747395
-5.678257
-2.026640
-2.629504
0.006483
-1.877213
-2.498902
-0.767596
-0.491449
0.120922
-0.000042
-0.120817
-4.280210
-10.423153
-13.729809
-17.252116
-17.631461
-19.589506
-22.677921
-17.600554
-13.991534
-15.456127
-10.302065
-9.636855
-10.308413
-15.967514
-8.566699
