840.072253
1030.731439
105.281938
166.301654
201.183906
151.627870
95.144910
28.244927
-31.144807
-62.957263
-76.951350
-64.411779
-61.149878
-46.050953
-43.004383
-32.121084
-39.038698
-35.729874
-38.625118
-25.622468
-20.565800
-10.496516
-2.860464
-1.044811
5.225850
1.975102
1.817480
1.695242
1.521536
1.347830
1.981983
0.981117
2.536258
0.659440
-0.222616
1.148314
0.472340
-0.007806
-0.378936
-0.816315
-1.220510
-3.011680
-0.216824
-0.255852
-2.678782
-2.995797
0.619453
-6.832468
-5.272559
-3.087217
-10.106880
-3.594323
17.308501
64.542109
104.323942
111.674255
125.102174
134.182451
133.795965
131.092403
135.942394
135.383990
146.594584
140.976207
130.468158
116.880577
95.432014
70.930973
78.437565
58.655315
55.800404
48.542081
36.006640
33.385264
23.384894
13.566865
13.421128
1.479558
3.726701
1.396370
-7.346836
-0.782301
3.319872
-2.688532
-4.452503
1.120067
-0.623586
-2.160485
5.288484
-1.825626
-1.661416
2.847767
1.581257
5.476192
3.148972
2.429830
1.906817
0.483588
0.927422
0.119240
-0.529459
-0.123181
-1.786923
-0.690192
-1.869292
-4.753397
-4.738464
-3.788285
-4.212834
-4.637383
-2.857466
0.439306
-7.213873
-5.010385
-6.749243
-2.561381
-1.062620
16.625780
50.691603
91.520253
113.538549
114.871939
117.654304
125.532940
117.539260
120.926196
114.763611
119.692937
104.689408
88.304831
76.459572
54.995634
50.078509
32.805267
27.790657
30.264341
20.339103
17.856636
17.770037
10.453080
7.973381
3.203911
0.846553
7.553729
3.010905
2.907968
2.833982
-5.257242
-3.144210
4.336979
4.114284
3.891589
0.562347
6.212292
5.688611
6.460846
4.764469
3.214690
5.209361
0.254746
-4.909681
-10.664698
-6.609736
-5.258105
-2.168863
0.831358
3.300677
4.499774
5.195401
6.270472
8.777909
8.127429
7.681666
6.912363
3.613940
-0.404160
-0.447525
-5.714508
-3.304548
-6.608685
-3.884098
-9.321448
-7.975645
10.638860
50.654313
72.764040
90.068073
94.849547
104.004245
105.102127
112.510162
107.523912
96.597083
77.544537
55.960138
53.487350
38.614461
36.316448
21.383256
33.802179
18.798038
13.871590
3.972333
-8.155226
-0.881173
-0.870765
-16.989267
-3.103886
-18.468078
-5.054343
-2.833423
-2.704631
-0.702510
-0.671287
-7.472028
-0.590628
-8.007856
-4.604651
-2.942330
-2.674845
0.629852
1.416223
-0.265393
2.734920
1.194824
0.872903
1.218898
0.149682
-0.105145
-0.094983
-0.440956
-0.983414
-2.700239
-0.950932
-1.115811
1.058320
-1.422563
-4.463209
-7.045347
0.424576
0.463568
-10.331912
-0.902336
-4.051169
-2.714757
-4.607818
-1.156119
0.698385
30.163168
67.765586
88.532674
99.506572
97.926145
111.746570
121.491335
131.184141
109.090963
83.287252
59.339980
52.185333
40.243953
42.702668
42.498545
27.897544
25.394787
12.984786
3.313282
8.068396
3.232863
0.856951
-3.727039
0.825758
-1.378734
0.779834
-1.304529
-5.257242
0.704450
0.674123
2.377199
0.607404
-0.972089
3.351555
-2.128093
-0.759862
4.754200
2.221379
1.898472
0.932866
-0.920257
-0.279012
-0.521479
0.075384
0.029460
-0.057956
-0.215727
-1.223069
-1.275988
-1.640556
-2.020974
-1.655061
-2.686707
-3.915877
-3.352440
-1.510086
-2.892176
-8.315833
-6.094791
-9.664347
-13.723081
-11.132728
-15.317872
-10.180335
20.985307
62.697547
77.564101
88.614647
116.249194
158.723319
183.555774
182.741569
165.480408
139.764770
118.337382
103.234796
83.396949
66.038641
56.173116
41.319667
28.705969
21.098958
16.210153
1.530065
-8.052196
-10.298449
-5.489005
-7.616299
-3.029831
-7.251732
-6.982268
3.277654
-6.459193
-7.965367
-7.513140
-2.205562
0.949234
-6.002289
0.788800
3.002537
-3.463395
1.412385
1.197457
-0.221160
-0.177796
0.953383
0.368448
0.272395
-0.128034
0.193007
0.092714
-0.952489
-3.587470
-0.947097
-5.237706
-5.883450
-4.963674
-2.554401
0.390783
-5.344965
-0.798449
-2.208616
-0.903821
3.674462
-9.344943
4.147688
2.489787
0.696652
24.333577
63.777753
86.734710
92.864704
115.706033
114.128577
117.088343
115.167722
92.619737
86.209207
61.834818
62.073332
45.074728
27.897544
25.370416
27.897544
27.737213
20.260422
5.706551
0.881212
0.869948
-8.441687
0.842221
-5.888111
0.804095
13.472485
-3.343599
-5.207762
6.421461
0.671524
0.642930
-2.657241
0.566679
-2.308310
4.346957
-1.932539
3.650177
1.286711
-4.513634
-1.081301
1.325033
1.041098
1.375946
0.601765
0.190031
-0.128170
-0.235045
-2.114990
-1.695852
-2.158358
-2.641418
-2.385542
-2.726334
-3.977545
-0.370335
-4.820332
1.988085
-3.109508
-6.156458
-8.184686
2.698116
-0.644401
-4.341051
-4.508229
15.045612
54.948661
77.650283
94.952198
104.333372
103.008748
110.038247
100.590261
101.863556
75.381189
65.725365
48.819201
43.845700
31.382076
21.464484
11.462694
16.397373
-0.903722
6.438430
-10.565674
-15.238203
-22.063619
-5.472288
-12.163353
-5.227094
-13.649954
-9.075379
3.258464
37.688238
43.143625
42.303470
41.548598
40.036709
31.201371
23.494901
17.799428
12.040635
10.371365
6.437315
7.726648
4.264467
0.583376
0.391476
0.512117
-0.008905
-0.741242
-0.155831
-0.227068
-1.690045
-0.360638
0.248680
0.286806
2.059926
1.309229
1.453984
-1.871188
0.467034
-7.624203
-0.902336
0.567546
-2.703254
4.136554
0.672390
-1.194705
16.424711
55.580641
84.637985
93.068578
104.547478
107.664975
110.003097
114.940343
96.878231
74.022012
59.397258
52.185333
40.167005
40.167005
22.945778
22.923757
17.943234
0.892477
3.300415
5.662012
0.869948
-1.464813
0.841354
5.311268
2.985171
0.780700
0.754706
0.728712
-1.194705
-2.967827
7.495824
3.847050
2.074822
-0.886011
5.575660
1.621256
1.450767
2.187975
0.287672
0.242615
0.743076
2.208297
0.997662
-0.099435
0.105780
-0.090154
0.112898
-0.998599
-0.150909
-2.261136
-0.856467
-2.433095
-1.114050
-2.145449
-2.412933
-3.804187
-5.365060
-0.485686
0.891300
-5.175279
1.050248
2.863150
-2.508223
-8.345649
17.200017
54.760695
81.980645
99.519583
93.440223
109.484490
110.696501
103.106881
99.512242
72.641312
61.021307
56.226361
48.819201
23.883409
23.996708
18.851900
18.833946
13.805345
-0.899386
-5.739772
-15.238203
-5.583740
-0.853419
-7.624225
-3.020172
-7.235881
-0.764955
-6.744507
-0.706846
-2.492124
-9.283556
-7.050635
-5.056399
0.874959
-2.975765
-1.564822
-2.446369
1.458441
2.699776
-1.448875
0.310469
-1.275988
-0.338079
-0.267485
0.002599
0.411734
-0.630869
-0.563657
-1.212258
0.759160
1.581132
2.573335
1.158040
4.127837
-0.661911
0.422843
1.714543
-18.134806
-39.487818
-51.935860
-50.614975
-57.141073
-53.837869
-35.077913
-24.731768
19.048079
53.248305
54.500505
78.145279
84.848081
103.453393
103.568100
92.349183
78.668584
67.095612
52.235560
40.243953
27.763935
32.679577
27.817378
17.873955
15.388572
3.300415
3.271464
7.933791
3.171744
0.840488
7.506221
-5.714931
2.888667
-1.291172
-1.246649
-3.102032
-4.774813
10.972591
3.813646
3.579817
-0.887495
-3.377005
-0.742053
0.392516
1.244893
0.288539
0.236550
0.196691
-0.259719
0.973908
0.677705
0.214520
0.046050
-0.264024
-1.014450
-1.371092
-2.240581
1.017071
-3.165591
0.511012
0.576374
-6.457881
-1.529405
-7.776428
0.830394
2.314316
-3.638904
-0.611444
-2.398750
-4.341051
-2.620916
15.153337
52.764910
75.446585
90.795689
107.243252
103.113752
112.734286
103.207179
94.432251
85.224979
61.079256
48.726827
36.316448
31.471230
26.412972
6.543674
16.412975
4.014551
-0.899386
-3.313173
-17.648035
-5.578167
-5.483433
-7.624225
-9.671497
-7.220030
3.388956
-8.787598
-2.627356
-4.341051
-0.638330
-0.600169
-2.060671
-3.310121
-5.539784
-2.752862
-1.429591
1.458441
0.476845
1.013233
0.825171
0.621756
0.167861
0.610181
-0.011503
-0.072721
0.086648
-0.540651
0.601538
-1.971719
-1.694687
-1.230843
-0.531310
-4.365236
-4.844214
-6.446158
-4.506786
-2.177941
-2.319813
-7.108477
-1.055199
-2.841292
-2.967827
-1.193221
12.514442
63.851485
81.986308
88.873906
100.239985
105.500944
112.666547
110.187453
106.790599
73.665108
61.954075
52.386240
44.858853
32.773845
30.206196
30.235268
13.085737
12.959548
-25.613541
-53.992633
-64.687281
-66.220895
-62.608975
-56.932645
-49.098719
-49.768589
-35.847637
-34.770135
-27.478315
-20.914648
-14.708754
-4.205794
-0.943891
-0.868202
-0.798449
2.750279
-0.660427
2.126734
1.055103
0.233084
0.704475
0.537202
1.160312
0.498831
0.082146
-0.492597
-0.286562
-1.408071
-1.870577
-1.264979
-3.435547
-3.258092
-6.258291
-5.039645
-3.503022
-6.151145
-5.426727
-0.493491
-1.957638
-2.128287
-3.973260
-5.975744
-2.530762
-4.541664
15.279016
50.995964
80.035757
85.070824
87.070352
100.803307
101.602403
95.851160
87.434209
73.059592
51.111948
41.515309
33.898390
31.441512
21.505098
21.383256
-0.913262
1.550862
6.419858
3.945467
-10.462895
-3.229458
-3.155403
-5.349691
-5.243811
-11.481296
3.381280
-6.736581
-10.319272
-4.341051
-7.564529
2.667412
2.460160
0.885358
-1.738691
-5.046445
-1.432811
-2.112013
-1.788803
1.665325
0.817495
0.978146
1.154986
0.195738
0.006191
-0.409708
0.084915
-1.567566
-1.175148
0.200157
-1.062129
1.039019
-1.361213
2.232514
-0.661911
-3.024460
0.460969
0.489562
1.952585
-10.225106
-2.699419
-1.104175
-4.768628
-4.985102
22.285969
61.958637
82.726591
97.680667
105.104173
117.118708
115.111731
114.599273
99.569891
76.459572
66.580976
57.234639
42.498545
35.157962
22.879716
17.977874
13.010024
0.891610
-3.907256
3.252163
-8.509972
7.775432
-1.435131
-5.844816
2.962653
2.866150
-1.282268
2.673143
0.694919
2.470486
0.626467
5.415881
4.996230
-2.254629
0.466167
2.739144
2.466343
3.922472
3.347450
2.161602
1.726114
0.147302
0.640247
0.193007
0.051341
-0.505228
0.760380
7.073969
12.259674
16.967519
18.187429
18.995367
18.219288
17.358173
16.034195
17.836203
13.231498
11.473447
12.387261
10.265910
12.765430
-0.655676
-9.902460
-6.451267
9.283474
46.855301
82.525971
89.474984
104.991627
99.195238
103.882838
100.590261
92.519210
73.268732
53.487350
46.244628
26.513022
23.928729
21.505098
16.475382
8.979317
13.845092
-5.789926
-8.139375
-0.883774
-12.681211
-10.103169
-9.887333
-11.872847
-7.212105
-0.766689
-4.742278
-8.386761
1.152748
-7.595363
-0.600169
-6.639519
-6.084513
0.805141
-3.915142
-1.432811
0.567461
-0.278402
1.028585
-1.192535
1.021482
0.931252
0.340494
0.042718
-0.187886
0.081449
-0.884454
-1.175148
-0.889581
0.240016
1.764855
-2.214227
-0.592158
0.381252
1.553704
-0.782124
-3.500705
-0.897884
-0.973574
-7.630999
2.390067
2.480136
0.696652
20.276836
65.658596
90.724024
97.893943
87.538429
110.392752
121.983701
115.054032
99.569891
78.059930
56.795217
54.627595
30.206196
44.556628
27.710491
15.523297
10.555762
15.358633
3.268247
7.981299
-3.834402
-1.457392
7.624991
0.818826
13.741935
-1.322338
6.785687
-1.239229
0.690586
2.460836
-2.764604
-2.588222
3.513008
1.865732
1.704893
-0.721276
0.377786
0.322331
1.013285
3.892051
0.678740
1.258955
1.526882
0.300638
0.003217
-0.043365
-1.199915
-0.476530
-0.618201
-0.759873
0.411483
-5.651532
-3.751431
-7.934579
-0.385079
-0.427577
-5.508951
-5.868677
-0.530785
-5.278310
-5.682504
-11.312530
-15.554138
-12.361374
9.239890
63.418209
67.795656
89.666170
94.321735
120.500732
168.832652
176.859940
166.594218
147.729888
115.633412
98.834854
78.884078
71.335138
58.877705
56.279606
46.200794
28.623873
13.765599
-0.892447
-0.882040
-5.572594
-10.092891
-12.163353
-3.013732
-11.557080
-11.102375
-4.736705
-4.547237
1.151262
2.813256
-5.444743
-0.553335
-0.511705
-4.248009
1.865269
-2.446369
-2.095295
-0.275800
1.009395
0.310469
0.234709
-0.824241
-0.046834
0.022517
-0.309250
0.551169
-0.563657
-1.187518
-0.912588
-0.418518
-0.480850
-3.962459
-4.419665
-2.795616
-3.055385
1.717760
-2.189444
-2.342820
2.119857
-2.718591
5.890958
-8.447439
4.492865
24.420794
63.851485
88.333500
87.010126
98.551871
108.110331
108.334647
117.664612
92.349183
83.368035
61.834818
54.627595
30.409703
37.496249
25.297302
17.943234
8.179247
-6.376725
5.667579
10.381202
0.859550
3.152443
0.837022
0.817093
2.959436
-3.408784
0.744308
-3.190223
4.459461
-1.117532
4.002937
2.161675
3.490739
-2.227788
-0.786576
-0.712371
2.393968
-0.549119
1.720316
2.058668
-0.805225
1.653188
-0.148411
0.036392
-0.000867
-0.420046
-0.816315
-1.856711
-2.450354
-1.894168
-4.240326
-3.340315
-0.316563
-3.225634
-1.439250
-5.118391
-5.539784
-1.841725
-9.244809
-6.865633
-9.144618
-9.611954
-0.683429
-8.489540
25.349347
64.066804
85.035271
85.434375
106.308136
111.613667
104.498744
103.708672
97.529488
73.338445
71.133055
34.026671
36.488564
23.951389
21.484791
21.444177
8.987860
1.553833
1.540463
-8.179002
-15.238203
-5.589312
-12.415967
-14.399128
-3.020172
-15.793084
-6.974343
-12.720978
-12.181572
-9.763522
-12.707278
-5.444743
-12.522065
-6.022845
-0.464003
16.832932
30.883015
28.055941
22.844968
16.666298
12.723881
7.574597
5.343646
2.475507
-0.073482
-2.277218
-3.370306
-2.962039
-5.249166
-5.872373
-1.081301
-3.494366
1.164474
-0.598095
0.386451
1.576222
1.724193
1.830347
-0.908273
-4.113019
-2.730095
-4.601633
6.160169
-1.206578
30.416033
66.115087
76.593542
93.782137
100.666538
100.846200
113.121306
108.131218
102.176066
76.312109
57.069856
44.858853
40.090057
22.945778
25.321674
8.203001
20.240751
10.524958
-3.911090
7.965463
3.203911
-1.451456
0.829223
-1.395060
-1.363893
6.991554
0.742575
6.556067
0.689720
4.208929
-2.764604
2.161675
0.543284
0.500827
0.454903
2.677903
4.405080
-1.418729
2.494156
2.669745
2.612100
1.266873
0.791795
0.244964
-0.030834
-0.164210
-0.800464
-2.548390
0.756087
-3.626003
-2.227034
-1.822238
-1.165567
-0.348653
-3.542649
-1.593801
-2.992483
-1.844945
-0.535121
-3.728066
-3.995550
6.476044
-4.385632
-8.468984
21.335479
61.835742
78.684471
102.468317
106.308136
104.268794
116.245345
106.141160
97.622728
68.583495
58.988900
51.354645
36.454141
26.538034
19.031442
14.043826
21.362949
1.553833
6.413667
-0.893315
3.899411
1.484014
-10.103169
-3.091007
-3.007292
-2.923578
7.526906
-4.725560
-6.419566
-2.488905
-5.841012
-3.861808
-8.121533
-3.287831
-4.248009
-1.593801
0.652134
-2.095295
1.968674
-0.228966
0.314926
-0.528047
1.364636
0.083188
0.003217
-0.555180
0.308811
-0.209259
-1.613224
0.746293
-1.065964
1.770423
-0.526858
5.060155
4.528299
0.421977
5.442173
3.145562
3.379392
0.570145
-22.620447
-57.064373
-57.397529
-56.345195
-20.840677
19.092121
36.293186
56.834612
65.095601
78.197924
84.629025
79.530445
70.687058
49.312490
30.089906
27.683769
22.857695
32.679577
15.493358
30.060834
22.681528
12.972167
-3.891918
3.236079
3.194261
-1.449972
5.333537
11.849090
-7.784448
0.765970
2.750346
6.563985
0.687987
2.425451
3.963965
-2.569050
6.345779
1.836781
-2.005392
0.412446
2.354996
3.778717
-0.452652
3.179948
0.172430
0.823970
0.081449
0.239397
0.016340
-0.626951
-0.360617
-1.983018
-2.526138
-0.788851
-2.306288
-4.989500
-2.095295
-3.281111
-1.471448
-7.476758
-5.580896
-5.961178
-3.466154
-2.176584
-9.157249
-2.453487
-13.782110
-4.602963
23.616064
55.575213
76.704028
92.362820
94.909409
107.141903
97.600383
96.503843
85.306456
63.498800
58.710913
43.928662
23.996708
14.070323
19.013488
11.506278
9.004947
8.936599
-0.900253
-5.739772
1.509268
-5.583740
-10.092891
-5.344118
-7.426090
-7.188328
-13.200449
-4.725560
-8.325093
-13.435390
-7.513140
-2.199123
0.943292
-4.628428
-1.706494
-0.422373
2.674425
-1.194545
-0.269729
-0.830708
0.307498
-1.236361
0.372286
0.071304
0.009650
-0.077174
0.328111
0.126506
0.620838
-0.924091
2.936720
0.283340
-2.276077
-1.552933
0.391650
-0.728696
-0.802901
-3.537815
-0.906789
-7.271765
-2.733929
4.169958
0.673257
4.515134
30.416033
70.361975
97.326801
97.893943
100.773177
108.333010
113.007616
112.675237
101.877306
68.880475
51.934201
42.416895
39.936160
30.177123
22.813653
25.224189
17.908595
15.343663
12.833360
0.874281
5.511693
7.751678
5.344672
0.811894
-29.284828
-46.970931
-55.529744
-49.522364
-51.178291
-41.658975
-26.086237
-19.684468
-16.923094
-6.172291
-4.429965
-4.028793
2.327159
-1.361213
0.261678
0.794544
2.460674
1.156021
0.680944
0.285046
-0.138938
-0.657785
-0.879718
-0.140502
-0.178663
0.363947
-0.252383
-2.655006
-3.854210
-1.332997
-2.568966
-2.814160
0.806626
-8.810288
-3.482871
-5.365489
-5.769684
-6.070848
-11.881902
-6.593924
27.548455
66.009601
89.816232
83.223022
106.637264
106.927189
99.414913
108.678955
90.491451
63.498800
56.279606
54.047160
28.979619
24.019368
16.553390
21.525405
18.905763
11.397317
1.544920
-0.891580
-0.880305
-7.901614
-3.161843
-9.877055
-3.004073
-5.071061
-13.125532
-8.705375
-2.608037
2.947586
-2.350453
-2.195903
-5.032622
-3.243250
2.041818
-3.859665
-3.399992
-0.324369
-0.271464
0.990205
2.222804
0.228767
0.391476
0.066847
-0.010389
0.317340
-0.154347
0.129106
-0.747708
1.336168
0.916782
0.280740
2.026522
-0.602547
0.388184
1.592305
1.717760
0.494761
-0.908273
-2.557546
-1.065588
4.169958
-2.990834
6.413544
36.482898
62.315542
87.415363
98.427135
110.122009
112.906970
104.079119
114.940343
90.030314
66.452317
57.179711
47.119012
42.376070
25.370416
32.585309
22.791632
8.147576
8.107986
8.028806
0.870815
7.846693
-8.330725
-1.424742
-5.776781
-3.496975
-7.511309
2.737479
2.647409
-3.036847
2.419018
-6.051725
2.132724
1.981536
1.814263
1.685592
2.627797
3.333459
4.479688
3.111280
1.963653
1.559837
1.187693
1.362218
0.504754
-0.352665
-0.647507
-1.120290
2.496270
9.375873
13.843766
15.013100
16.946991
18.056642
13.245066
13.670223
10.194107
5.927477
2.229880
-0.541193
-3.778219
-5.769684
-2.466366
-2.562960
-8.540929
27.548455
62.254023
78.856836
83.400092
99.879448
92.494505
106.998893
98.938684
85.387933
61.195156
63.619405
41.515309
28.952254
26.488009
6.562246
13.977581
8.962230
-3.361470
1.538978
-10.565674
-10.432061
-10.277893
-14.683814
-12.100199
-11.784432
-13.575036
-4.892738
-12.691011
-12.151605
-4.279752
-2.356893
-2.205562
2.437132
-3.243250
-6.706895
-0.423240
-1.384514
1.423899
0.467932
-2.020974
0.782953
-1.593073
-0.084995
-0.043365
0.016084
0.045924
0.315244
0.472866
0.168964
-2.634382
0.245214
1.803827
2.020954
-0.599579
0.387318
5.021175
-0.793997
-0.847425
-2.346654
3.713434
2.274262
-2.883471
0.674123
6.437297
40.359640
70.361975
95.654539
98.107220
107.664198
106.045887
103.661968
103.160351
95.033791
80.706931
56.960000
35.090415
42.376070
32.459618
20.398114
22.769611
15.373602
10.504421
8.005052
7.965463
3.174960
9.970472
-5.900481
-1.383187
0.786766
2.824332
-1.258522
2.640975
6.239349
7.711457
-4.366603
-0.983962
0.531154
0.487829
0.447971
0.404647
0.358724
2.779202
3.070207
-0.359154
0.165498
1.108514
-0.124665
0.194858
-0.299670
-0.678341
-1.223069
-1.299764
-0.682597
-4.420677
-5.183460
-2.702558
-1.223524
-1.355535
-0.400691
-1.635658
-5.673397
-3.254395
-10.956344
-5.420967
-5.817236
-13.331374
-10.079289
-8.592319
27.740877
60.153237
85.594713
86.070588
104.672701
100.097925
105.114650
101.373827
83.396949
71.133055
51.451723
26.588058
31.560383
66.665194
83.871695
86.365658
78.586403
73.129305
60.441807
42.642743
49.413070
43.658436
29.153236
12.718936
7.979716
-5.054343
1.298327
-10.660301
-8.263426
-7.893422
-5.737982
-6.999245
-4.977145
-1.861044
0.782858
-3.820038
-1.368415
-3.751431
-0.265393
-2.020974
-0.647180
-1.945126
0.600507
-0.421394
0.009531
0.186573
-0.155831
0.495384
2.012577
0.209689
-0.425938
-2.791134
1.193425
-3.525194
2.522017
1.598739
-2.055240
-0.857813
-0.921630
-5.710302
5.700928
2.412584
6.191841
2.618458
38.514671
76.767311
83.744480
102.320694
110.586169
104.185602
115.807972
96.593575
85.710407
71.515422
66.838294
49.647623
44.858853
35.056642
22.813653
27.496717
10.555762
0.883812
-1.497463
-3.838237
-6.123141
-1.441067
-5.925221
-7.963695
2.917618
-1.304529
-1.261490
4.576376
-6.683358
-2.860464
-7.663656
5.194178
0.528554
3.139995
-4.378752
1.495802
5.173724
3.573352
0.929649
1.319466
1.063367
0.768297
2.137743
0.221703
-0.067616
-0.384509
-0.392815
-1.716408
-0.183867
-1.460020
-4.525012
-5.124351
-3.915877
-2.351635
-3.693232
-5.272559
-3.098362
2.256746
-2.044572
-3.839518
-9.296187
-4.302043
-4.446930
5.169316
29.741622
68.633672
79.373930
88.578407
97.991656
109.379992
114.415215
104.009567
83.001328
66.289262
56.599074
44.094587
39.018993
19.067350
14.096821
19.049396
16.412975
-0.907191
-8.210704
-20.318823
-8.020494
-0.865561
-12.365444
-7.608374
-9.558440
-15.637060
-11.013960
-12.601110
-6.348237
-2.472806
-9.157249
1.007169
-6.464795
-7.300538
-2.920039
-4.943667
-2.357207
-0.316563
10.430222
16.707069
15.032626
10.373571
5.679096
2.491848
-0.531947
-1.925889
-3.714215
-4.512880
-3.515720
-2.634382
-1.768907
-2.034862
-4.027774
-2.511106
-1.748488
0.432375
4.259860
-7.571257
3.462902
3.746838
7.372604
-2.906477
-6.623609
4.526269
32.472176
74.883865
83.651944
89.846269
107.777888
115.312483
113.348686
98.597528
88.048380
68.880475
63.900202
42.335246
37.460126
32.553886
25.102333
27.550161
17.787357
10.463348
-6.259211
-10.907647
-1.469265
-3.734708
-5.900481
5.188786
5.021765
0.759038
-3.263076
2.637758
6.199759
2.386850
3.919426
3.657760
0.528554
-0.831099
0.437573
-2.906946
2.265918
0.301536
-1.131149
1.876555
1.868822
0.437482
-0.126149
-0.044523
-0.236392
-1.093794
-2.441409
-2.502242
-3.191482
-4.455349
-3.789206
-3.525317
-3.003723
-7.333122
0.687786
0.753148
-5.673397
-8.825272
-6.475073
-7.050635
-7.554251
-7.913978
-10.091920
-4.647544
34.041771
62.393449
92.374939
90.526506
104.350631
107.786042
109.611105
101.667664
90.319086
58.655315
56.386095
44.011625
24.064688
26.538034
14.030577
16.490984
11.473590
-5.845651
-10.689009
-10.586230
-8.036345
-7.901614
-10.051779
-12.062307
-11.759171
-11.380250
-13.080581
-6.665253
-8.283982
-6.086699
-2.331135
-2.176584
-6.433961
0.858619
-2.953475
-0.417169
0.637279
1.374005
-0.988478
-1.426584
0.297100
-1.572518
-0.523824
-0.039028
0.019301
0.049389
-0.394943
0.492167
1.575673
0.781677
-1.762722
0.285073
-3.984230
3.246362
2.505315
-1.913367
1.740277
3.190101
4.924968
-2.588222
5.661338
7.742262
-6.657751
4.542971
44.427639
76.855145
64.242826
39.721025
38.905968
37.473815
42.872802
43.995353
32.302505
27.523439
20.299762
20.339103
20.378444
13.085737
13.060499
8.155494
8.123822
0.880346
-6.253026
5.561799
7.799186
-1.439583
-5.875741
2.981954
2.907968
-1.295625
-1.261490
-3.132707
-1.156119
0.645529
5.550486
0.565813
6.202024
4.418219
2.822655
2.538719
4.168910
-2.953310
0.919999
1.308331
2.694497
-0.506141
0.423120
0.236170
0.142388
-0.602330
-0.106677
0.656298
-2.690337
-2.651696
-3.852360
-2.726334
-4.875446
-5.393304
-0.406762
-1.658197
-8.315833
-4.683905
-2.060671
-2.221661
-2.376212
-7.955089
-13.920797
-0.726794
33.924386
66.828210
86.340637
97.313172
95.497084
98.043672
102.705687
99.799021
80.456474
63.679708
51.403184
51.548802
41.671823
16.553390
26.563046
11.538966
18.923717
6.469384
-0.897651
-0.891580
-5.633893
-7.901614
-3.148963
-12.062307
-7.354762
-2.913918
-11.013960
1.243363
-4.485938
-6.054998
-2.327915
-6.906744
-6.433961
0.852677
-2.908894
-2.658128
-0.362530
-2.853140
0.445650
0.947987
1.231969
0.556510
0.356934
-0.032957
0.061119
0.196223
-0.711274
-0.602001
0.646573
0.213155
0.253013
2.628761
-0.553572
-3.567872
0.399448
4.006485
2.995243
0.498227
-0.929050
2.177759
0.626467
-2.883471
-1.166507
6.476887
42.742751
71.169805
87.804308
107.685168
112.944670
115.786046
113.462376
110.296442
85.544141
66.259329
64.148117
44.642978
37.460126
20.398114
25.199818
30.060834
17.804676
8.100068
3.255380
-3.853574
-8.450223
9.939667
0.824025
0.804095
0.782433
-21.765263
-60.694771
-56.693435
-53.977164
-37.522963
-37.023520
-26.771761
-10.762409
-5.965460
-1.928704
0.394249
2.226947
-1.299862
0.246081
2.371966
1.393560
0.695921
0.554257
0.225902
-0.245687
-1.010455
-1.616728
-1.355242
-0.695477
-2.733920
-3.175869
-1.939263
-4.039212
-4.440050
-1.519745
-7.776428
-3.109508
-4.739383
-12.699265
-5.531922
-12.880638
-6.158028
-4.502656
-2.698192
32.105166
71.290941
88.519055
100.383653
95.888867
114.757954
102.805985
102.549176
88.021016
61.195156
56.492584
31.560383
21.566019
11.571655
14.096821
6.537483
6.531292
-3.364690
-3.338932
-5.723054
-15.178269
-14.938533
-7.751031
-3.062029
-11.759171
-13.500119
-8.962323
-4.675407
-10.104551
-9.662477
-5.690430
-0.582823
-10.800320
-8.570553
-6.567958
-3.764560
-1.339436
1.350977
0.447135
-0.795290
-1.529600
-0.791308
0.356934
-0.029488
-0.026714
-0.981984
0.363496
-0.598167
-0.301274
-4.502274
-1.119646
2.628761
-1.437901
-2.579141
-2.876021
-5.551796
-2.085915
-0.860781
-3.896544
2.190626
-1.070040
-1.120500
-8.545412
12.259961
42.893431
79.272394
98.307698
103.211408
108.118957
107.244762
97.430694
110.623407
75.574794
56.740290
49.791252
39.666841
37.532373
25.151075
25.272931
17.856636
0.890744
8.076314
10.370934
0.866482
0.854351
5.383644
9.724034
-1.372798
7.126159
2.801814
4.698858
-10.748008
6.120579
-1.099723
-2.664910
5.146671
-0.894916
-0.814774
2.805953
3.602670
5.022298
1.876203
0.910348
1.813212
2.996312
0.997662
0.708509
0.346394
-0.261538
-0.657807
-0.713292
-1.767798
-2.261136
-3.940656
-6.005079
-6.050259
-6.674355
-6.442898
0.705612
15.423577
31.078978
41.479444
40.537951
37.111528
34.316619
30.402823
22.056254
23.096127
50.474414
75.781903
93.177327
95.383894
116.618488
117.117515
110.362601
104.109866
85.387933
58.822108
48.865387
41.476181
24.110007
24.064688
14.030577
6.562246
8.970773
-3.355031
3.980009
-17.786723
-5.650611
3.818813
-5.449997
-12.074938
-13.829755
-11.317097
-8.921211
-12.496225
-4.424640
-0.659145
-3.995550
-2.157265
-3.449436
-1.838505
-4.121203
-3.764560
-1.339436
-1.139809
-0.254985
1.529127
-0.627861
-0.124023
-0.883899
0.115140
-0.069019
-0.256905
-0.440956
0.508251
-0.793721
-2.688811
-1.799832
-1.269187
2.082195
-0.617388
0.397715
1.621256
-2.078246
-0.863750
-2.411839
-5.829800
0.626467
-1.124952
4.370383
14.202174
40.838402
75.225800
98.525675
102.988729
106.217565
113.835291
111.784524
101.180199
94.848720
68.947155
56.740290
37.387879
30.089906
20.358773
22.791632
20.221081
15.313725
8.044642
5.611906
5.556232
-3.773052
3.100975
5.277864
0.797164
0.781567
-1.291172
2.711744
-1.203610
-2.963993
2.370766
-4.298568
2.084473
-0.883043
0.471366
-0.736117
0.391650
-3.354482
2.636679
2.854574
3.338182
0.963154
1.577355
0.228391
0.102682
-0.031223
-0.832509
-1.705143
-1.839743
-3.865925
-2.124004
-4.659863
-2.805588
-4.976491
-3.447545
-1.535844
-0.450127
-4.485771
-4.731458
-11.216383
-8.866743
-7.646752
-6.165953
-6.427491
11.182065
36.254628
77.650283
86.433877
95.785088
101.213911
102.753676
110.040531
97.622728
73.268732
58.766510
44.053106
26.613071
9.081840
24.042028
6.580818
16.490984
41.163153
68.128439
62.775167
66.893286
46.879365
48.199586
35.929836
30.563071
23.186388
3.454203
-6.895089
-4.647544
1.180972
-4.224027
-0.616647
-3.711348
-3.427146
2.145444
-0.449259
0.696699
1.581257
-1.967126
3.170764
-0.775972
-1.053220
-0.757873
-1.048347
-0.093374
0.013864
-0.260739
0.634680
0.533985
-0.801390
0.219220
-1.812202
-2.893561
1.222376
1.334963
5.842523
-3.135790
1.756361
5.986391
-6.868987
2.200277
-2.795279
-4.731518
-1.169476
10.322211
44.848256
79.542948
90.126063
92.615733
103.757127
104.505517
109.206556
103.568100
80.550066
78.592502
56.740290
44.729328
27.763935
25.175446
22.769611
15.448449
17.770037
10.483885
5.623040
5.545097
-1.458876
7.664580
5.266729
-1.369830
0.776368
2.801814
-1.246649
0.701851
6.112661
0.635998
0.598739
2.071605
0.517290
-2.097418
0.431508
2.527585
2.187975
1.870635
0.240882
-0.335408
1.786676
0.668084
0.361879
0.012131
-0.217331
-0.883899
-0.115350
-1.371092
-2.333082
-2.124004
-1.011017
-3.586985
-3.082977
-3.439619
-4.912833
-6.567958
-5.776176
-8.960123
-9.724281
-8.778328
-2.392311
-11.657150
-2.604817
3.239274
46.376099
69.324615
90.991580
97.723776
100.392703
105.633844
98.173940
104.511060
80.763560
66.351917
59.155693
44.053106
29.089080
34.090812
16.537789
14.004079
4.026065
6.457002
-8.226554
-12.959086
-3.261656
-14.893583
-7.711404
-7.529120
-11.683387
-9.178158
-4.825867
-8.582041
-8.191481
-7.780365
-5.658728
-6.855355
-3.438291
-1.812747
-0.450994
-2.602402
-2.301481
-1.120490
-4.420128
0.356520
-0.605322
-1.077853
-0.070251
-0.083715
-0.584645
-3.916002
-8.897134
-11.143673
-12.707086
-15.774313
-11.532071
-12.939375
-12.999753
-13.392843
-9.352739
-11.500370
-9.847604
-2.239291
-0.932019
-4.224349
-7.881374
-8.295037
0.685387
14.167534
48.858111
85.373402
92.355018
100.923424
104.302070
109.223723
113.689755
101.478959
83.125686
61.477046
42.294421
52.135107
34.854002
17.925915
25.199818
15.493358
12.946929
5.662012
3.245730
7.917955
0.847420
0.837022
0.817959
0.800630
0.775502
4.821340
-3.209395
-5.003657
6.112661
-1.086366
7.054289
-3.964579
0.508625
1.727410
1.598739
2.494180
3.048413
2.597089
2.782696
1.734032
-0.246362
1.706515
0.193007
0.051341
-0.234049
-0.713285
0.203513
-0.586003
-2.343360
-0.237639
-1.772085
-2.837290
-6.917059
-5.595395
-2.691563
-2.942330
-3.142943
-4.779010
-5.199056
-10.518405
-2.408410
-9.864568
-6.419566
11.208563
50.706214
80.301363
91.089526
94.125843
98.894343
110.477083
103.207179
102.647122
75.957718
56.332850
46.551465
26.638083
26.638083
26.563046
26.437985
9.056209
1.561260
-0.907191
-13.060132
-5.711909
-3.251997
1.478072
-16.902587
-5.293965
-2.971875
-9.188436
1.284957
-4.641971
-4.424640
-7.718698
-7.307582
-2.134727
-0.530785
-0.484818
-0.445790
-1.503646
-1.307238
-1.104391
-0.936962
1.454838
-0.158715
0.506616
0.482882
0.032681
-0.107363
-0.805555
0.950155
-1.433977
-0.317599
0.227018
-0.446716
-0.507564
-2.350296
-3.619085
1.505452
1.637340
0.481764
1.888249
-0.943891
3.830348
4.058610
-4.712963
0.684521
16.228008
43.144563
91.773171
92.049207
68.791496
57.183790
42.311527
41.069679
36.846025
