191.155043
74.914466
-4.749116
106.345379
214.934629
191.546806
170.247787
146.793605
133.766625
125.040182
129.490011
115.939999
105.634270
98.991101
94.649114
104.140320
93.818873
77.630862
53.384352
36.127191
28.747870
33.775769
35.702165
43.009417
42.540534
37.102634
27.421913
31.629704
12.970030
14.661296
7.932141
7.689320
7.347572
6.996831
10.100066
12.575459
14.512524
17.358290
15.552048
14.395147
15.244654
11.875869
11.620431
11.122747
6.545386
5.290325
1.147383
-2.140346
-4.815778
-8.033524
-11.023147
-14.620937
-15.310267
-17.806621
-17.034995
-15.111781
-19.337022
-19.814159
-19.314945
-19.912486
-19.617444
-12.890897
-13.901948
-19.251373
-21.193854
-20.402983
-15.267228
11.626033
87.968938
131.067672
137.468232
128.349406
141.593892
150.712123
153.555701
175.464197
198.512682
201.717047
208.262873
203.184791
191.109468
155.668543
111.052523
102.596160
80.594390
68.294045
63.164061
55.504220
55.451857
37.724056
27.621655
25.022909
19.929842
15.057748
-6.454783
-3.983314
7.262735
-1.625271
-1.581534
-5.583387
0.501351
0.485062
-3.166960
-4.699082
0.414475
-4.047149
-6.417215
0.319151
-0.858997
0.262440
-0.666554
0.960640
-2.404469
0.127902
0.833452
0.298537
0.038009
0.080111
-0.383313
-0.471591
-0.748041
-0.119511
-0.688141
0.487683
-0.950721
-1.074465
-1.201228
-0.279681
-0.310482
-2.954218
11.846749
55.219342
120.230117
149.659429
162.939068
142.110797
144.870301
147.142090
154.656473
146.141920
133.619979
131.782597
126.268729
146.801047
129.367549
115.998736
96.052656
84.224209
65.917110
61.046780
61.997850
46.784308
41.751850
36.764730
33.478622
28.493963
23.524334
4.100844
6.360251
-11.781508
3.799250
-2.668054
-2.556382
-2.444710
-9.811610
-2.203258
4.527972
1.152219
6.757697
0.961076
3.190012
3.849157
6.920223
5.103103
2.826153
3.990926
1.584013
1.279826
0.902779
-0.364910
-2.368567
-3.807696
-3.538207
-3.898752
-4.061612
-5.356229
-2.915308
-4.959226
-8.392956
-3.901757
-8.653772
-6.945619
-7.526672
-3.814777
-6.964073
-4.305340
35.656899
91.889826
112.986390
124.568607
131.419966
134.092663
136.321592
126.085294
126.794860
123.691316
123.557834
120.720814
125.052165
101.043143
70.134985
62.866958
47.977336
55.190045
28.045382
35.586985
27.648138
20.279488
7.936913
5.505028
-6.583879
-4.147405
-4.077666
-15.342105
-12.864259
-16.852083
-9.977374
-3.536165
25.948574
41.680527
46.885759
51.181266
35.135218
29.547266
15.254145
7.786460
10.540213
2.256159
1.964185
-1.296320
0.762600
-2.365999
0.095323
0.804417
0.144835
0.000000
0.205252
0.178639
-0.437633
0.346559
1.009503
1.185433
-1.772531
-1.110683
-6.117079
-3.543687
-5.122791
-4.271199
-4.529348
-6.390707
1.205811
-3.919082
6.789984
50.690643
92.080313
111.916332
128.852211
117.101981
118.470772
117.269878
121.818491
116.863417
104.531978
93.029630
76.440744
56.822795
41.631180
39.409730
36.941824
34.171966
34.039900
23.898850
9.200204
9.083290
8.948390
-0.608028
-2.918562
-2.840090
-4.981517
-4.829740
-8.742487
-0.508230
-0.487901
-7.668849
-3.854035
-2.004059
-0.378246
6.438615
7.009335
4.154931
-0.251959
3.977127
3.987594
2.689404
1.173186
1.992640
0.289028
0.032155
-0.432412
-1.348582
-2.735939
-2.405292
-1.964090
-5.430736
-4.902493
-5.521254
-6.108284
-5.702434
-4.086716
0.304672
-6.093564
-6.539979
-8.323932
-4.266612
-4.628079
-4.879816
6.013973
34.919636
72.590424
101.862936
111.632352
121.161130
117.041849
108.066694
123.189005
128.052424
105.839590
93.875678
67.396283
57.888443
38.011204
35.385739
35.486362
35.419280
20.454311
30.104152
12.799538
7.883285
-6.603243
-4.130996
5.250215
-6.241775
-3.872552
0.558666
-3.642824
0.518847
-11.215688
4.204419
-6.658529
-6.288611
-1.168656
-1.086430
0.345094
-0.921978
1.421747
-0.745280
-4.073536
-0.547589
-1.054286
-1.342595
0.094720
0.060934
-0.296920
-0.062582
-0.147890
0.652502
0.262599
-0.582505
2.176392
1.185433
0.580576
0.657390
0.732418
-0.282145
-13.547789
-34.124142
-39.031514
-47.004816
-38.158580
-49.010005
-33.287888
-2.366238
52.939277
81.823533
108.005314
119.675513
104.769430
109.992687
122.067101
112.629944
107.292903
83.332519
66.109850
64.070667
39.220624
41.671404
21.740045
21.656026
14.239437
4.276774
11.589508
-3.054379
-7.814886
-10.071754
-12.210845
-2.867253
-5.035722
-4.862264
-0.531639
9.458497
-0.490365
4.989337
4.725700
1.193306
1.116491
2.379244
4.658559
-0.290153
2.748419
4.148064
1.260832
2.212366
3.126663
-0.084397
0.755442
0.386341
-0.148460
-0.471199
-0.748755
-0.295663
-0.869683
-1.029672
-2.624658
-0.593075
-2.465727
-1.722958
-5.144932
-9.109234
-2.227538
-1.021699
-1.079432
-5.839424
-9.621168
-8.437243
-12.438687
17.574281
58.231163
93.484291
117.781098
114.337100
121.648941
104.451127
108.935757
116.143470
103.392683
89.053352
67.396283
57.505438
38.047098
35.251575
30.392506
27.965933
25.336601
10.484562
0.625030
-4.221246
5.393547
5.324535
-6.357961
-13.066952
-10.557714
-1.600778
-3.651029
-3.515654
-3.384381
-1.382093
-1.313863
-2.912619
-2.719812
-3.943872
4.320868
1.534068
-0.822258
-0.731285
-3.961933
0.892656
-0.437371
-0.349897
-0.603035
-0.164452
-0.061232
0.019650
-0.623733
-1.389031
-1.220343
-1.089537
-3.156889
-0.182963
-2.597139
-2.048981
1.767677
4.181911
-0.314795
-1.656970
-1.762606
-6.482733
-2.061404
3.066208
-5.929613
18.561987
64.973686
92.009916
112.768970
100.220266
105.443188
121.765146
115.224051
113.079117
107.503075
85.802209
71.329935
54.429056
46.829336
41.671404
36.552217
1.848910
-52.647531
-74.429892
-59.203844
-61.280663
-48.467459
-45.566083
-28.383649
-20.969160
-9.396896
-11.276406
-6.750997
-4.515346
-8.149430
-5.929613
-2.182130
-2.037259
-0.387487
5.171180
7.188708
3.137285
2.801147
0.652031
1.285964
4.050082
1.753705
0.599000
0.166134
0.230683
-0.206254
-0.891850
-1.761090
-0.664569
-1.329685
-3.324168
-5.374448
-3.749886
-2.426998
-1.694242
-8.325840
-9.091015
-3.492038
-7.810443
-12.671718
-1.156409
-12.971549
-8.392601
-5.067005
13.777106
60.008076
97.059901
118.171102
114.951816
110.901968
113.683209
108.935757
107.037038
113.180008
76.845602
64.861722
47.796118
35.419280
32.934728
30.507847
20.551435
13.034505
17.806098
3.059268
0.622013
-6.577424
-13.620980
-1.719743
-6.241775
0.568319
-10.211742
-9.865770
-3.499245
0.494112
0.473599
5.715190
-2.883903
-2.703402
-3.930963
4.267240
-4.527095
-1.928072
-2.633552
-1.435798
-1.201968
-0.428624
-0.787638
1.972374
-0.369205
-0.200098
-0.045272
-0.199199
0.764548
0.282249
-0.630796
-1.376828
-0.182347
0.605585
-2.059822
1.763489
3.091148
-7.755314
-3.003003
2.488153
-4.990888
4.574108
1.309421
-2.314930
14.826392
61.300306
92.439869
117.045282
114.235912
103.077422
113.233392
115.692441
118.736979
105.148080
70.984678
59.093156
61.284548
44.373442
26.841799
21.782055
34.072917
21.614016
19.012010
-3.066452
-3.057397
-3.006088
-5.323013
-2.900453
-7.400282
1.634544
1.591670
5.681385
-2.514128
-0.488517
3.187684
3.011754
2.814880
2.613817
-0.354221
-1.587553
1.993873
3.822177
2.425464
2.016826
-0.154625
2.267760
2.014494
2.176879
0.455831
0.032514
1.964856
5.074090
10.196012
11.326000
16.686144
13.228878
12.167892
8.253597
3.179362
0.275110
4.996940
-4.773707
3.057759
-5.425468
-7.377007
-11.280493
-1.317362
-3.212085
17.748500
54.314607
83.345454
103.654925
118.840676
114.099496
102.247442
107.325928
106.828794
105.737821
89.309252
60.149429
67.781038
40.426322
33.059481
25.626162
17.993890
3.109516
10.464534
-6.693610
-4.208939
-6.577424
7.668774
-8.701887
-1.681255
-6.067496
0.550219
-5.706028
-9.463997
-3.355665
5.975668
-3.060301
-1.224639
3.466522
-2.481879
-0.970964
-5.669470
0.278126
-2.594823
-3.828008
0.854230
-1.516874
0.110406
-1.136178
0.751043
0.012066
0.100531
0.318349
0.804094
1.528871
-1.170846
1.700461
-1.658699
0.610944
2.557282
0.762787
1.977118
-2.797021
-8.371531
2.492341
-5.069115
-3.778147
-2.218348
-0.475580
20.621728
65.524310
103.725772
108.858629
111.662379
112.329753
110.910249
120.805041
108.240637
100.130344
75.923753
56.713520
39.334087
41.832297
31.808224
21.887079
6.847980
16.734938
-0.632669
4.264208
-0.619117
-3.009107
-2.969870
-2.897435
-2.837071
-0.566137
3.719663
-4.640020
-6.461557
-10.001023
-0.467572
-2.170058
-0.412128
2.618006
3.776605
0.937853
-1.433627
0.755641
-1.110683
0.543061
1.634552
1.291823
1.268063
1.037016
0.146608
-0.156245
0.039215
-0.716481
-1.026311
-3.300060
-1.025570
-1.193763
-6.157842
-5.080842
-2.698099
-2.969200
-4.439020
-3.504947
-1.012952
0.373449
-7.421649
-2.945437
-6.658529
-3.224392
10.128330
56.440382
98.060518
110.219555
103.953044
100.373253
100.751148
140.945339
168.641748
168.454810
139.500816
129.582047
102.693223
90.162254
68.101667
40.502814
30.363670
22.931497
7.959896
12.787171
-6.629062
-8.948500
2.946947
-10.970647
-6.183682
-3.843836
-3.737177
-7.759477
2.503575
-1.425830
-3.195676
-1.289370
-1.214142
-4.163335
-8.094213
1.625698
-2.067549
-1.870640
-1.612196
-2.168807
-2.483737
-1.497510
0.944932
0.075414
0.200995
0.137900
0.237274
-0.232398
-0.080085
-1.768948
-0.663995
-2.719885
-3.901914
1.474461
-0.239022
-1.312900
-3.739255
-4.091277
2.328978
1.068259
-5.092583
6.313336
-5.788804
-2.323984
22.654111
69.526498
91.214730
115.810890
113.738694
108.386954
116.153744
118.424240
118.736979
112.088455
88.700930
61.581757
46.739280
36.693892
31.746995
14.239437
21.761050
26.428848
-3.084561
4.260019
-0.622197
-0.608644
-2.948743
-9.816126
-9.611623
-4.970675
-9.141267
3.610754
1.486273
-4.320205
-2.281730
2.982432
-2.019150
-0.380711
2.387621
0.919989
6.485015
1.755111
-0.223005
1.983871
-0.150929
0.357277
-0.091173
0.364426
0.250455
-0.065636
-0.274853
0.328095
-1.796820
-1.342595
-1.025570
-2.607043
-4.594378
-3.294034
-4.642715
-5.100291
0.302862
0.329408
-6.450696
-8.418522
-7.455130
0.433177
-8.470724
2.317358
17.748500
64.581757
88.480277
114.645761
113.354904
106.843717
102.976294
115.008148
109.455411
86.762928
74.458420
62.451014
55.347132
30.623189
37.939417
18.079250
23.040384
8.044168
7.982879
5.494411
3.032665
-8.922077
-6.409600
5.218363
-3.913575
2.772554
-7.997281
-11.891332
-7.477634
-9.062223
-12.343493
-4.757175
-7.700658
-2.654175
-5.222894
1.613874
26.128873
25.737564
26.059635
20.446886
14.556767
8.643660
5.426745
3.045533
1.000906
0.135974
-0.505102
-1.048087
-1.040420
-1.850749
0.938293
-1.474399
-0.947703
2.333191
-1.192174
-0.269208
2.019006
-1.587553
-4.451121
-1.819951
1.173656
2.978243
4.916837
1.386236
22.738747
72.128539
100.358291
111.376906
112.393792
108.042869
110.910249
109.011517
103.710509
104.840029
78.622218
76.514600
51.875898
39.220624
34.204982
31.624538
21.635021
16.637736
11.646487
9.110270
9.002350
6.551388
11.088093
-7.486332
-2.809908
1.625612
-0.543344
-0.526711
-10.367222
3.313348
-7.679074
-5.530655
1.175442
4.053424
2.370866
2.165614
0.836029
1.759300
4.102481
0.539489
1.034636
0.812629
0.250094
0.791415
0.142420
-0.033240
-0.918876
-0.484069
-1.444443
-1.355504
-4.014015
-1.910616
-4.540327
-1.542457
-2.698099
1.377409
-6.824003
-6.104724
-1.016450
-8.391497
-1.177403
-1.264877
4.039852
-5.092824
29.504447
61.147020
98.838776
106.150682
111.261788
100.893861
107.847488
112.847422
114.515118
93.875678
82.154154
62.807538
42.912918
45.571629
33.121857
40.349829
25.529641
15.469886
7.990541
-1.808967
0.619600
-1.773977
2.943991
-4.003825
-6.177227
-14.850269
-5.828669
-9.787648
0.507988
-7.151754
-1.352352
-6.420725
0.414475
3.376276
-2.399834
-4.747285
-4.350944
-0.769773
-1.571173
-0.568582
1.406781
-0.894297
-0.680978
-0.197692
0.313208
-0.008747
-0.222244
0.599775
-1.431518
-1.008229
0.959237
-0.166330
-0.194051
0.637740
-0.247647
-0.271672
2.014817
2.224258
-11.206506
-35.312529
-46.035377
-54.707932
-50.639146
-56.403902
-12.113921
41.909347
83.160207
90.253125
105.748965
99.411446
102.353856
117.097613
94.749616
94.842690
80.784474
61.225106
44.330817
36.729311
39.258445
11.817423
21.761050
19.105024
16.508133
6.696389
-0.617885
6.544797
-7.603673
-0.588931
-2.812926
-11.478447
-4.786376
-8.752712
-0.506382
-2.372275
-7.668849
1.268334
4.356607
2.580306
-1.714315
-1.551335
1.968740
1.742545
2.326600
2.689014
1.621370
1.232505
0.573867
0.148270
0.341873
-0.200887
0.366294
-1.021679
-0.664569
-1.858399
0.152638
-0.526595
2.612439
0.230465
-3.699183
-5.156093
-2.092163
-3.563040
1.729151
-4.040694
-10.788657
-9.850887
-10.323838
0.476616
33.615795
65.644207
101.497813
114.896353
96.578626
102.747540
112.623971
103.600676
109.881307
88.626851
69.935549
52.710198
53.010257
42.831720
30.392506
20.551435
15.455167
10.464534
10.394436
0.622617
0.615377
5.367004
-8.737118
-8.596197
-8.376007
-8.111780
0.544186
-1.522052
-5.415563
-3.302335
-8.548846
-11.534344
-7.589054
3.376276
-3.763139
-3.427490
-3.149934
-0.759276
-2.426998
0.942905
1.406781
-0.376139
0.098943
0.064554
0.765399
-0.000616
-0.260188
-0.060372
0.253667
0.334054
-1.290099
-1.539446
-3.302717
-0.221157
-0.246415
-2.401319
0.871757
-0.329579
-3.084312
1.089696
-8.397324
4.725700
-5.882677
1.388022
34.526886
78.554691
107.030096
118.097375
112.759498
111.008537
113.935977
118.663239
106.242042
97.672666
73.740184
61.522315
46.559167
46.694252
36.552217
31.563310
31.502081
19.086421
-0.630205
-0.624661
4.218131
-2.984961
1.736368
6.287751
-36.436461
-54.788553
-63.381705
-55.132872
-57.491509
-34.121182
-25.446609
-30.524862
-24.042787
-15.029834
-9.744545
-5.235267
-0.285225
0.732418
-0.216229
4.001392
0.434092
1.219323
0.902958
0.146484
0.260807
-0.154915
-0.118965
-0.806848
-1.453250
-0.372640
1.385547
-1.238888
-4.675455
-1.571173
-2.736828
-3.014384
-5.725272
-6.171687
-5.152433
-1.098676
0.410251
-4.679718
-8.515365
4.199110
35.520959
75.556583
99.394675
106.498337
111.734739
115.163636
108.065142
103.600676
95.683136
83.979526
65.232360
52.510160
47.841423
35.452821
37.867630
25.408991
22.931497
10.504589
-1.814215
-1.808967
0.618394
-1.763480
-8.728310
-1.703998
7.308701
0.559269
0.542376
4.629107
-3.450017
-7.063678
-1.336606
-2.965948
-1.186150
-2.580334
-5.099588
-0.928976
-1.997810
-2.756192
1.084784
0.188233
-1.665334
-2.343678
0.806909
0.061538
0.233579
-0.001232
-0.281870
0.665684
0.266172
-0.597596
-0.727377
0.509120
0.578789
0.653817
-1.240464
-4.611534
-2.677768
-1.629807
-1.723370
-6.278231
-5.233392
4.712518
-5.882677
-2.345111
42.676141
85.239062
100.702377
117.489309
108.198194
102.328785
117.109743
99.880124
104.429294
83.332519
73.740184
59.036116
44.288191
36.658473
29.199259
14.308427
21.635021
11.669278
-0.624661
9.083290
-5.431425
6.511843
-5.252546
-7.455041
-7.267296
-2.731436
-2.646927
-2.553364
-0.502070
-6.109535
4.870700
-5.475896
1.168297
-3.279453
-4.333781
4.541645
-2.498889
1.700657
4.732681
2.572100
2.122432
0.753986
1.779930
0.866079
0.164773
-0.460105
-0.704606
-0.222185
-1.541326
4.791006
12.533760
16.232366
19.204956
16.751117
16.445902
11.461795
12.451129
10.858462
7.283988
-2.617255
-2.830573
-3.006971
-4.989547
0.480839
43.617939
83.959960
102.179006
110.943097
103.167930
110.239795
106.048239
110.785815
100.654889
83.818337
72.548045
60.377701
50.230352
23.083938
30.479012
30.392506
18.028034
15.396290
0.625030
-6.635517
-1.793222
-1.763480
-11.071091
-3.987416
-8.393622
-1.611275
-5.789940
-5.596297
2.465149
-5.144462
-3.125937
-4.615170
-1.173904
-1.089929
0.348714
-4.641594
-0.832755
-2.749738
1.078872
0.907435
-0.446119
-0.832763
0.091703
-0.402023
0.124144
-0.005544
-0.035730
-0.590844
-1.543995
-1.073276
-0.149081
-0.178035
-0.203292
0.659177
-0.254423
0.816379
-3.919177
-1.638861
-1.744497
-0.381327
-0.413976
-7.402995
-4.092541
5.173883
31.013415
83.001498
104.920769
96.954374
107.963999
118.710877
109.485738
119.619237
104.223927
85.301418
73.454369
58.922037
51.377571
41.711627
24.086109
26.583705
9.227184
9.164230
4.255830
6.656843
1.784600
-0.607412
-7.556736
-7.431573
-0.572298
-2.716345
-2.637873
-14.834718
1.454119
-0.480508
-5.780982
-3.783568
-0.402888
-6.124854
-0.338204
0.896766
-0.280297
-2.173654
1.415818
-0.177418
2.050485
1.627798
1.710940
0.620542
0.182332
-0.123068
-0.516383
0.077224
-0.307909
-2.999859
-1.723427
-2.703927
-3.082652
-2.498001
-3.796066
-4.174792
-9.437166
-7.553698
-1.032196
-4.105242
-10.899717
-4.770085
-10.418428
-1.399588
33.981185
84.154088
104.412407
107.425417
100.937480
103.705808
116.116795
113.736859
90.983449
86.845876
54.928233
50.135039
32.997105
40.349829
82.467122
87.426507
87.343560
79.304273
66.755024
54.038070
41.613757
17.174434
14.586734
2.873051
2.813935
7.055885
-7.838745
-5.564023
-7.310290
-10.715711
0.455500
-9.729271
-2.748527
1.841472
-2.325993
-0.906233
-3.085386
-4.687357
-3.197151
-3.370433
-2.201895
-0.342899
0.775057
0.054298
0.370515
-0.042254
-0.178072
-0.335016
-1.220343
-0.123823
-1.900918
-2.975513
-0.995993
-2.032719
-3.254247
-2.488048
-0.310482
-4.263376
-0.356069
-0.384407
-2.046313
-3.924503
4.989337
7.068778
48.623434
85.138781
115.993190
110.321455
111.254255
99.936876
116.512244
128.850912
99.347312
90.211666
58.979076
59.093156
49.327546
26.712752
26.712752
19.179435
19.105024
16.589135
13.977277
-3.036270
-0.616036
-0.609260
-0.594475
-5.144134
-5.014040
-7.032615
-6.797934
1.502351
-2.441692
-6.086067
-2.203258
-5.421137
-0.399192
-1.795806
-0.339436
3.308649
0.803874
-0.242102
-1.837578
0.501975
0.963426
0.312618
-0.962193
0.647522
0.028582
-0.587030
0.414072
0.080240
-0.311408
-0.914808
-0.468862
-3.470876
-4.783558
-3.434956
-5.878101
-7.583791
-5.825715
-3.621133
-3.847051
-5.645658
-2.842880
-6.508800
-3.171062
-3.314642
51.827605
91.106428
109.013652
96.937239
106.398998
115.518350
116.580335
111.438777
103.392683
79.683719
62.332173
37.939417
38.011204
30.594353
23.018607
18.079250
18.010962
12.898472
7.990541
3.053356
0.616584
-4.135098
-11.082251
-3.983314
-10.635836
-10.301025
-3.659234
-1.499308
-7.283867
-1.385592
-10.188709
-6.253381
-4.285976
-2.506493
-7.621263
-4.553518
2.484429
21.678063
21.929439
22.614998
16.486707
11.128215
5.683830
3.736788
0.847453
-0.227296
-0.976929
-0.353125
-3.624574
-2.137052
-0.763595
-2.292054
-0.206372
-0.233478
0.744923
-1.397409
0.903912
-5.572697
1.030745
4.152288
-0.423217
-0.446626
-0.467572
12.765858
50.959681
83.490893
103.631387
115.429811
120.071491
107.127584
114.989856
112.742237
97.099806
85.301418
71.260883
41.711627
44.032436
34.105933
34.105933
26.532086
24.062702
16.508133
-0.624661
-5.458528
-7.822709
-0.605564
-2.903471
-5.095349
-2.788781
-2.701254
-8.854964
-6.516316
1.441614
1.371945
-2.197221
1.229034
2.676649
-0.365926
2.295467
-1.500026
2.979102
1.642013
1.382307
1.156111
-1.225052
1.107277
0.217939
0.539601
0.079091
0.212344
-0.993273
0.396079
-0.316657
-0.398882
-1.749246
-2.844848
0.215985
-4.464149
-0.762775
-4.236445
-0.916730
-8.979971
-3.859960
-7.220762
-12.752927
-15.325373
-10.485993
11.848961
42.058137
89.353038
96.678515
107.888958
114.922578
118.419697
107.219454
111.547604
103.690931
84.624283
59.921158
55.399495
43.034714
38.011204
27.965933
20.493161
15.499325
5.552805
15.234379
17.618306
-16.151254
0.606931
-1.721493
2.864184
-3.872552
-10.256383
-1.558791
-5.557568
-5.325196
-6.949179
-10.148171
-4.557077
-1.149411
-3.930963
-0.972713
1.510421
1.380365
3.095090
-0.612320
0.176770
-1.549148
1.463273
0.081447
0.245333
-0.043737
0.131819
-0.208253
0.216153
-0.488942
0.892216
0.464460
-3.737756
-1.032211
-1.140865
-4.376356
-1.415518
-0.316027
4.955340
-0.361613
-1.916532
-2.076495
-5.726223
-2.299839
8.991270
62.684252
92.009916
90.977734
69.700007
48.839892
38.533981
56.013011
52.600825
50.779578
56.167147
43.947185
36.587636
26.635323
24.132923
19.291052
16.653936
16.686337
11.657882
4.255830
4.197187
-7.830531
-5.317593
-2.900453
-2.834053
1.636330
7.968114
-0.529175
-2.514128
5.285929
-0.470652
3.041075
2.848390
-1.919550
8.154561
4.856413
3.242739
-0.272904
2.550691
-0.980902
1.753188
3.021741
2.656854
1.572961
-0.453717
0.055192
-0.078727
0.274891
-1.573613
-1.219954
-2.069781
-3.091424
-2.827233
-4.017735
-2.588368
-3.866527
-4.289291
-2.157799
-10.329871
-5.319777
-7.298884
-2.896210
2.205037
-3.203881
8.111265
64.126422
93.484291
105.223602
106.266166
111.017854
104.877023
107.432402
112.091739
101.043143
82.154154
72.479214
47.705510
28.124830
28.018899
22.909720
20.532011
13.059239
8.044168
0.628047
-1.810716
-4.167916
-11.193855
2.914433
-10.792081
-10.602355
-5.925491
-7.794707
-3.507449
-5.312286
-6.922757
-4.841087
-6.209343
0.396375
-5.372623
0.334234
-2.100367
-0.810011
1.194149
-1.419389
-1.189661
1.792700
0.546826
0.079034
-0.136460
-0.041988
-0.081490
0.487729
-0.970016
-2.108802
-1.187108
0.460888
-0.905448
-0.209452
-0.235942
-1.291773
-7.094008
-1.539262
0.989658
-4.591930
-0.393031
-5.413314
-0.450323
-4.125064
9.025457
65.052346
92.117404
103.982680
106.793023
113.247107
111.828220
122.440014
107.703196
107.082731
83.170393
61.165664
49.090394
46.469111
36.729311
29.227471
26.661133
23.992480
14.087660
6.689798
-5.469369
4.163676
1.739940
4.021257
-2.831035
10.472721
-0.547656
9.823162
-6.500671
-48.417791
-59.047371
-47.406413
-50.984457
-30.608466
-28.418671
-15.664005
-8.541730
-6.598029
-1.146901
-1.734587
0.468033
1.897598
-0.098566
0.191143
0.092892
-0.025819
-0.192807
0.057918
-0.598933
-0.775331
-2.633848
-4.394791
-1.329139
-1.497332
2.112827
-0.776771
-3.156389
-5.981960
-7.742879
3.222326
-5.804194
-8.001988
2.225728
-5.073460
10.103597
56.772775
94.123136
105.918912
106.833827
108.877408
121.467801
105.579335
110.200730
98.972726
72.341552
65.294134
50.468637
30.623189
27.939450
20.532011
22.996829
17.925602
15.381571
3.062223
0.621410
-4.192530
-11.238496
-6.351507
-8.508121
7.224429
-10.155940
6.757101
-3.486938
-3.347460
-3.199778
-4.795904
-1.219391
-1.142413
-1.056689
-2.256254
-2.075754
-0.792516
0.239514
0.206332
0.169530
1.220980
0.934315
0.957639
0.513295
0.090246
-0.111672
-0.051747
-0.699255
-1.392442
-1.736641
-0.161402
-2.401572
-1.897204
-0.239022
0.773505
-3.700141
-0.318491
-5.685173
-6.053278
-8.119517
-2.085549
-0.452787
-6.000017
24.460800
65.445650
100.938142
112.768970
115.809931
111.971254
108.250515
116.043734
113.191410
77.783378
80.784474
63.823290
51.676567
41.792074
29.199259
26.686942
26.583705
23.992480
4.268397
1.816755
-3.036270
4.172054
-2.951762
-7.494155
1.675630
-2.779726
1.580952
-4.656282
1.479128
3.334292
-0.465108
1.275480
2.835824
-4.936129
-11.543693
6.028367
-2.607301
-3.379410
2.478191
-1.707484
1.740007
0.867084
1.021595
1.162370
0.201063
-0.006455
-0.466802
-1.364801
-1.999906
-3.109672
-3.871224
-2.527775
-2.906501
-1.505537
-5.553792
-2.917562
6.133885
16.748058
38.158750
42.193503
34.663956
37.334442
21.684217
9.695495
31.208967
72.505124
102.790017
115.146945
117.903455
109.899198
105.515868
119.656674
107.557646
93.875678
79.987276
57.997873
47.977336
38.154778
23.171048
23.062161
20.493161
15.543482
10.494576
5.515645
0.623220
-6.570969
-8.816386
-1.726741
-8.499313
0.567112
-14.548822
-7.777092
-11.526484
4.337134
-5.028276
2.184347
-7.734139
-4.163335
-6.685064
-4.800130
-5.602508
0.271490
-3.390918
-0.582578
-0.486357
-0.383137
0.508400
-0.475864
0.345060
0.042469
-0.022793
0.155416
-0.083781
-0.108422
0.955049
-1.452716
-3.159566
-2.722303
-1.192174
-2.379636
-1.439663
3.433877
-5.726074
-1.810897
-5.092583
-0.432458
-2.224385
-7.842676
26.413114
65.602971
97.133501
105.036559
113.614389
112.449253
112.765001
122.937232
105.926784
94.563467
81.020456
68.848232
56.494971
49.232685
36.800149
29.086412
11.783236
14.225639
9.173224
-0.624045
1.795318
-5.382640
-7.634964
-2.882344
-2.824999
-4.959834
-2.671073
-0.527943
-0.510078
-2.399438
-2.287766
1.279053
-2.025186
1.118278
-3.116836
-0.325267
-0.296314
1.796999
1.545671
-0.189739
-0.157705
-0.609669
0.982049
-0.280689
0.386714
0.098934
-0.246137
-0.690662
0.094116
-2.209754
-1.009161
-1.878342
-2.155898
-3.320457
-0.717289
-4.025063
-4.394982
-3.504947
-3.756684
-3.989056
-5.892270
-4.660353
-4.937909
-1.385592
25.823821
65.112982
101.384281
97.849730
118.279343
107.510795
107.738661
101.205530
105.228977
89.309252
65.108814
62.748117
50.278009
32.903540
25.553771
32.965917
57.669583
74.743156
86.597034
69.004848
34.647837
31.936706
19.463647
5.207746
7.377652
-1.646265
0.546600
-1.537797
-3.486938
-5.267103
-3.179267
-6.499993
3.652323
1.891721
-2.424447
-2.219333
-2.026526
0.269077
-0.670053
0.966551
-0.474110
1.183820
0.891846
1.151599
0.452006
0.020691
-0.249347
-0.920262
0.246521
-0.113967
-2.310880
-1.485240
-2.479799
-2.792707
-1.198210
-1.327991
0.862825
0.944998
-3.078892
-7.639670
1.171869
-2.130822
-2.248530
1.382663
18.819467
65.917613
97.807260
122.002910
114.484521
110.305951
113.467586
118.663239
99.151553
97.290759
78.240927
63.823290
46.514139
41.510510
26.557895
16.653936
16.670136
1.832832
9.164230
-3.048343
1.788173
-0.609876
4.079900
-9.754775
3.895593
-4.932731
-2.652964
1.522001
-2.493001
5.180474
6.736024
4.646608
-0.409048
-4.818788
-4.466767
-4.075631
-1.418536
0.748496
-1.967672
2.689014
0.448383
-0.591560
0.262599
-0.057291
0.323761
0.006636
0.640890
-0.729390
-0.272920
-1.336140
-0.433872
-0.512599
-5.346732
-1.542457
-1.698344
-6.188898
-2.047038
-7.391544
-1.012952
-2.551618
-10.645866
2.131142
-3.134142
2.332137
25.761445
60.862284
105.468135
115.773424
109.511348
114.572447
110.735007
108.603618
103.293267
92.122934
72.479214
65.355907
43.075313
45.399822
35.519903
15.631797
17.976818
12.997405
3.082914
12.811905
-11.495185
-6.551605
-8.798771
-4.028439
-8.411237
-8.243893
-1.574536
8.752156
-13.374762
-1.415333
-8.604648
-1.284122
-9.310372
-1.117921
0.356557
0.325788
-0.860746
-0.771523
-5.134893
1.704064
-2.990980
1.130734
0.849378
-0.933603
0.286665
0.029438
-2.791000
-6.687061
-9.909906
-13.002358
-14.570567
-11.973114
-10.754018
-9.680855
-11.806891
-5.568751
-7.244305
-5.378419
-0.346212
-7.652298
-1.970859
-3.837773
-2.239476
-0.476196
30.370454
79.532093
101.640728
115.810890
113.987302
115.075639
121.072664
116.160832
113.191410
92.848286
73.240008
58.807957
39.144981
46.649224
24.203145
26.609514
29.058200
14.115256
-0.628973
4.239075
4.192998
-7.744481
-2.936671
8.561676
-0.573530
-9.212843
-2.646927
-0.523015
-8.333482
-2.357184
-5.851386
-0.433074
-5.170810
2.567740
1.003949
2.140482
-0.287073
0.737778
3.165662
0.525198
-0.152161
-1.040752
-0.753461
0.746449
0.210910
-0.211382
-0.572493
-0.209938
0.099546
-1.361959
-1.054286
-0.521346
-3.828008
-4.263263
-2.723918
-4.104332
-3.304849
-7.472621
-3.788958
-2.576232
-1.189649
-1.280623
-6.790643
-1.394339
35.692765
71.666511
95.826722
111.184278
107.628553
106.106257
106.154713
106.204065
100.363698
87.177665
72.479214
52.760208
37.939417
33.090669
25.577902
27.912967
15.543482
0.632270
0.628047
5.505028
-1.798470
-6.570969
-6.435419
0.591848
-3.938189
-6.022313
-1.586782
-5.660845
-9.441676
-10.918405
0.463343
-6.403110
-1.191399
0.381292
-3.763139
2.813563
-2.001913
-1.780389
-0.652558
-2.046166
0.780335
-0.865581
-0.278168
0.546787
-0.335649
-0.012073
-0.521482
-0.301816
-0.446688
-1.525428
-0.712286
-2.221649
2.115690
-1.962251
-2.189916
1.876587
-1.475881
-2.889171
-1.732424
-4.803143
1.186161
-3.870297
1.332644
-0.479892
40.065535
78.740840
108.642206
122.002910
114.857435
103.516985
104.048596
66.248928
45.568547
36.091772
14.184245
4.314473
6.795253
9.254164
4.314473
4.314473
9.209197
6.722753
4.251641
1.793532
1.788173
-5.366378
-0.596323
6.254796
-0.572914
-2.740490
-13.135939
1.509496
1.457691
-6.109535
3.116474
-2.112713
-6.717911
-3.279453
-5.685173
-4.005227
-1.403445
0.730632
0.628808
1.244076
1.017881
1.265459
1.232090
1.145226
0.051805
-0.043737
0.041628
-0.500478
-0.685081
-1.381324
-2.281163
-1.917071
-0.605322
-2.510911
0.255804
-3.033748
-4.500673
-3.563040
-3.788958
-7.008715
-1.194898
-6.447147
-3.154653
0.481442
39.507554
78.124725
101.838409
111.907820
107.742086
104.025230
107.006506
111.329950
103.690931
89.394553
67.652786
55.608945
40.732292
30.594353
25.698552
25.577902
15.572921
15.484605
8.013524
15.249098
-11.450543
-6.538695
-6.435419
-6.299868
2.825758
-1.625271
-10.055497
-1.527300
-3.454120
-5.196100
4.071703
-2.945437
-1.187900
-2.580334
-2.375220
-2.178311
-4.254060
0.257614
1.099563
0.916302
-1.652424
0.608898
-0.981127
0.060331
0.138923
-0.030182
-0.438072
-0.313889
-0.452724
-0.597596
-3.030613
-0.854140
-0.980902
-4.621685
-0.253191
-1.370245
0.886048
4.838426
-5.879451
-3.339080
-5.249037
-5.601059
1.343363
3.254705
46.430337
80.773290
106.298684
108.386262
113.987302
113.285751
113.818879
119.499737
101.183781
102.788281
73.597276
51.427404
56.494971
34.105933
21.698035
24.109516
23.992480
21.487986
9.137250
9.074297
1.775668
1.763163
6.360251
1.700640
8.291875
-2.707290
-2.643909
-2.550346
1.446973
5.134337
13.747432
1.245111
-0.400424
-1.838060
-5.685173
-20.893389
-30.251053
-30.635727
-24.388207
-17.976674
-11.484257
-5.795980
-2.335902
-0.947067
-0.255628
0.016893
0.218730
-0.832667
-1.514903
0.132728
-2.289970
-1.267604
1.847396
-0.677051
-3.778451
-0.822258
-0.902734
-7.526672
-2.432652
-7.075677
-2.805959
0.443433
-10.418428
-1.408335
37.829155
82.208925
106.768751
107.541303
103.820892
117.937336
104.538118
106.620551
103.889763
86.845876
72.616876
53.010257
47.977336
35.721149
18.079250
25.505511
20.493161
12.972672
-1.828211
-1.812466
-11.394742
5.377621
-6.409600
-6.306323
-10.658157
-8.199856
-3.671540
-3.540267
4.443306
-8.905978
-8.493044
-4.666808
-2.760834
0.376466
-3.685681
-5.836875
-1.964992
-0.741781
0.217192
-0.537092
-0.440870
2.473341
-0.258924
1.125370
0.228270
-0.048291
-0.336076
-1.351148
-1.605346
-1.533251
-1.932209
-0.180499
-0.202676
-2.917870
-3.222956
0.816379
-5.092115
-9.413335
