193.125433
150.227900
25.448528
-4.958202
15.713267
4.603897
2.938808
0.985769
0.360016
0.076725
-0.440833
-0.315256
-1.746204
-0.640904
-0.789871
-0.303617
-1.098198
-3.757579
1.430502
6.787300
30.522773
48.666979
66.626468
88.518599
117.527127
125.109522
115.692790
103.459196
106.068490
106.486404
97.265733
88.563863
99.032525
101.432681
122.736353
120.549501
122.681025
96.340643
72.033235
72.310020
65.148403
60.235702
45.193398
39.848802
37.436834
37.291307
39.306641
8.313106
8.214042
3.463883
-3.339631
-12.095028
-1.035209
-3.041698
-10.823894
-6.652065
-4.460581
-2.518581
7.228531
2.315201
-2.026644
1.919227
0.576332
7.634095
2.299506
1.832512
4.513460
2.858615
2.836407
0.520197
0.158985
-0.590282
-1.415333
-0.416873
-2.563067
-2.358695
-0.310852
-4.644588
-1.970248
-3.145771
-5.247714
-5.905323
-6.326192
-4.487966
-0.695065
-6.354475
9.905475
62.777081
113.367696
146.355248
148.734529
138.748717
146.558963
151.219849
146.462462
144.559646
137.130024
141.447529
146.873381
139.774007
146.337434
113.625446
92.745088
73.579795
58.547298
63.109846
63.838037
48.804297
43.376869
36.000419
25.679700
18.309665
8.258923
1.136184
1.108861
1.088369
-3.385734
-3.276985
7.281438
-3.081235
-1.012135
0.890277
-4.445071
0.790092
5.434156
-0.751019
5.930098
1.802409
3.868523
2.396173
2.899321
3.050374
3.687552
0.668863
1.774422
1.280614
0.036431
-0.269634
-0.239040
0.141942
-0.975752
8.171134
14.389667
15.995104
16.015104
16.801004
15.644158
19.549199
20.137393
24.137877
9.049733
6.783373
18.607395
68.920614
102.937779
116.658383
118.585827
125.401349
119.895354
127.430036
112.970751
121.012873
118.299560
112.422613
103.454261
92.608455
80.420408
74.902571
50.746702
43.698210
33.500633
28.545742
23.545907
18.441716
13.408960
3.642250
-1.134921
-8.135736
-17.159634
-10.034206
-7.597701
-7.320532
-7.084123
-4.872953
-12.131795
-7.935000
-2.470080
-0.750639
-0.700223
-1.957357
4.226723
2.748767
3.384681
2.848085
0.346289
-1.335851
1.419915
0.679803
0.678337
0.116487
-0.377493
-1.209999
-1.475531
-2.858208
-0.283497
-3.590541
-6.393706
-0.440167
-1.410118
-6.772711
-5.062039
-1.863241
-7.286300
-2.127865
-6.677584
0.767323
0.819692
-8.163885
8.361865
43.793455
89.515921
106.914610
116.259415
104.147891
115.619814
121.990310
116.902000
117.310595
109.431889
90.530971
68.325612
41.287427
43.709897
36.138351
33.642152
26.103951
21.020426
18.469964
13.438635
10.836295
1.152123
-5.952791
-5.868695
5.606810
-5.604394
-3.273360
-1.081766
-5.069784
0.926707
0.885723
-0.911419
-0.856709
5.326467
-5.024845
1.950263
-0.630408
1.608791
1.411653
2.841335
0.996254
0.265261
-1.075227
0.461163
0.084246
0.029600
-0.195649
-0.435604
-0.755046
-1.434759
-2.267143
-1.533325
0.374432
-0.389884
-4.994656
-5.546764
1.698052
0.642408
-4.589599
-4.915680
-6.822421
-10.689342
-9.642639
-10.014991
12.428097
48.797816
81.426371
99.337537
92.690233
95.779908
102.476227
100.364586
90.409774
88.770881
70.328820
53.118723
45.844600
38.491906
80.420408
97.915442
103.064979
83.129034
77.060890
74.187169
54.478374
39.461544
24.810362
17.348612
3.428210
16.643384
16.096832
9.263543
3.010831
-0.904128
2.729012
0.887136
-5.543387
-3.670687
-7.421365
1.869284
2.831526
-2.497461
-0.412291
0.368314
0.863295
0.232491
-0.156850
0.296089
-0.097002
-0.247717
-0.268249
-0.981481
-0.612622
-1.285466
-5.236750
-2.550172
-2.030316
-2.282604
-4.523525
-3.883978
-3.021447
-9.674430
-4.873848
-2.229364
-3.982543
-4.306913
-4.493126
-4.667325
0.922153
43.021659
88.222470
94.494913
97.249249
107.314168
109.688875
110.145948
122.150254
101.951989
83.085554
70.608801
53.661974
40.934208
33.706354
33.545848
18.559018
18.434342
10.996279
8.474302
-15.859949
-3.617733
-3.577858
-3.519858
-1.186212
-14.446379
-9.671726
-5.219955
-1.049437
-2.928986
4.562173
-2.664362
2.450150
6.879341
-2.167740
7.149876
0.573784
-2.763152
1.411653
3.626319
1.693847
0.830798
2.348499
1.696138
0.083108
0.020492
-0.086609
-0.447220
-2.226020
-1.410303
-0.765621
-2.739464
-1.777263
-3.652619
-3.162992
-3.505377
-6.137392
-4.255365
-3.269931
2.136834
-2.248362
-9.026332
-11.327058
-8.186905
-2.816515
22.955422
64.870049
83.649616
101.409341
99.763007
97.872913
111.943225
107.172184
101.313166
72.863589
55.639735
51.179612
40.894397
26.092806
21.133227
33.468939
1.289711
6.189160
-6.022946
1.261568
-13.083687
-8.160192
-3.415847
-10.149663
1.152664
-18.003503
-11.350324
-4.919417
-4.739368
-0.866036
-11.129670
-8.769537
-6.643988
-0.655408
-3.078266
-0.550095
14.806557
21.956143
21.125387
17.448500
13.353259
8.435322
4.211104
1.429599
-0.175426
-1.338064
-2.781763
-1.308641
-1.219391
-3.790233
-0.365562
-1.994275
-0.461305
-0.513528
-5.905323
-2.991413
-0.668954
-4.806738
-3.652166
-3.934489
-5.955993
-11.557103
-6.518037
2.830346
29.000337
71.114609
88.318875
96.719569
104.500276
115.898470
114.308553
126.364963
108.372529
92.477296
73.088327
53.252731
46.034819
26.128907
38.450226
18.469964
25.879347
3.629461
8.490869
6.008139
1.143015
8.184369
3.411201
3.326713
1.054215
-7.524684
-1.080522
0.950615
0.923292
2.710655
-2.653487
0.783261
0.733169
-0.737341
1.908019
-6.562931
-1.638492
-1.435493
-0.416542
0.975132
0.795595
0.198092
1.043756
0.563297
-0.150997
-0.039212
-0.493684
-0.151248
-0.623583
-0.769085
-1.579789
-1.070484
-3.705099
-4.187917
-7.659612
-2.805287
-3.055034
0.692578
-2.092466
-3.810080
-5.763492
-9.642639
-2.716049
-10.490061
24.830167
65.091701
83.927522
90.996936
100.180425
103.624127
117.815096
114.950655
92.168719
77.578077
58.551058
51.131511
43.492862
16.249775
26.142131
28.599755
11.192565
3.731433
6.159603
-13.263444
3.635115
1.230977
-15.001519
-14.667477
-5.476990
-7.426509
-0.983673
-0.956784
-2.826908
2.746849
-5.983598
-7.231766
6.740976
-2.033572
3.156649
-3.986348
4.610574
1.341318
0.389116
-0.893802
-0.233034
1.980281
1.674917
0.160530
-0.054375
-0.900957
0.122954
-0.925055
-0.247438
-0.898996
-2.441118
1.165229
-1.352119
-5.405540
-0.562021
2.915541
-1.932116
-3.459947
3.588358
-0.820650
0.808307
7.924574
4.603486
2.844427
36.704626
69.211383
45.732893
38.048425
45.944907
33.621081
58.009172
54.393827
35.517655
35.655587
23.545101
20.939656
18.594640
16.138826
18.523396
13.647391
13.490824
11.006945
10.910954
-3.686608
8.325194
-8.313224
1.105446
-5.682483
-3.349484
-1.119068
0.990461
-1.037003
-6.778088
-4.607256
7.743258
2.414947
3.777219
3.482124
-1.964741
0.564677
1.580629
3.230672
0.380246
2.253187
0.256154
-0.212623
0.952634
0.071723
0.117425
-0.128181
-0.709228
-1.124982
-2.375350
-2.403591
-0.303617
-1.084341
-1.254094
-1.378810
-6.680839
1.733725
-5.583889
-0.636362
-6.413075
-0.739435
-4.129523
-6.171094
-6.399352
-10.464382
29.068506
71.124783
90.497561
93.387902
89.115095
112.137775
106.024284
100.047968
89.883728
73.071178
53.421394
38.710196
46.061667
23.769091
23.679818
23.635181
11.160768
6.195071
1.273804
-13.276283
-3.533635
-3.485134
-10.370079
-3.346560
-3.266880
1.117179
-9.299484
-0.957905
-0.922053
-4.512854
-4.309572
-5.633060
-2.244897
0.731734
0.663210
4.061617
-1.558957
-0.431337
-1.876000
-2.812937
-1.231306
2.044996
0.129705
0.185501
-0.018021
-0.318363
-0.347998
-1.920216
-0.699622
0.827278
0.982172
-0.397891
1.270839
-0.502337
-1.598617
-2.901310
3.133912
-2.062615
2.108678
0.738861
2.471272
-7.980790
-2.794862
2.830346
32.613928
73.008052
90.043576
101.179293
93.159618
116.379376
106.801420
128.645661
106.350396
89.575269
70.608801
50.724738
35.931452
43.501755
38.376496
21.020426
13.490824
18.363098
6.019943
-1.259573
3.516810
-10.565661
-1.207350
-1.177508
7.621073
3.154216
-7.289800
-34.930873
-60.212415
-59.334125
-52.559389
-44.705739
-37.262787
-28.740522
-22.494314
-15.909881
-12.212043
-1.395618
-3.586509
0.968091
-0.272307
-1.766329
-0.144235
-0.074605
0.021122
-0.226514
-0.758140
-1.458948
-1.508127
-0.256562
1.631526
-4.108714
-2.090898
-4.208909
-5.688001
-3.978196
-1.832640
0.698696
-9.231704
2.361576
-4.158563
-2.612118
-10.104869
-8.575258
11.040389
61.238629
84.298063
88.805304
100.389135
93.934166
105.815575
96.155373
99.347966
67.991958
53.522284
41.126752
26.216118
23.702136
21.213126
31.199134
6.254184
3.745703
-6.040371
-5.993906
-15.517766
-5.842897
-5.732544
-10.160159
-12.107868
7.528851
-0.989275
-2.941231
-4.750984
-0.870517
-5.975445
-2.411186
-5.225458
2.111863
-1.884605
-2.874984
-0.501920
-3.138535
1.897536
1.584236
-0.741370
1.329106
0.883319
-0.169753
-0.021750
-0.199374
0.359074
-0.913042
0.222000
-2.595641
-1.022245
-1.964241
-6.592945
-2.432775
-3.741370
2.897835
-1.932116
-0.705013
-2.182240
-8.667278
-5.897272
-4.469098
2.724736
-2.921736
32.927900
67.221531
79.980364
105.648814
109.112709
118.194592
121.382413
109.401049
104.005389
67.802044
70.744456
50.871060
43.460126
41.012701
26.004127
28.431360
13.543013
10.942951
8.457734
8.383180
3.509770
1.120246
-3.519858
-5.688489
3.238704
5.264499
3.038045
0.947200
2.837387
2.693053
2.559280
-2.472238
9.782042
3.452614
-1.957491
4.092185
3.661428
-0.478712
2.659092
0.939928
1.280713
0.973814
0.666915
0.480459
0.074660
-0.142038
-0.322184
-1.149438
-3.347794
-3.017337
-5.524254
-4.172913
-6.345033
-4.219405
-7.799833
7.459915
25.541705
42.261581
36.550513
34.840821
36.169159
32.994220
28.632448
22.253256
37.161911
75.930349
99.337537
97.780270
109.521984
105.311233
112.611543
107.798312
102.286395
72.932785
53.421394
41.242929
41.165477
31.169784
23.702136
6.271918
3.767107
3.745703
1.278699
-8.412906
-5.924210
-8.176496
-5.720928
1.182032
-12.095028
-16.090443
-7.198252
-2.962018
-4.774216
-6.366743
-2.553224
-7.284246
-2.244897
-4.842312
5.765867
-1.728710
-0.501920
-0.438059
1.152249
2.187660
1.783149
0.195782
0.908085
0.063629
0.000000
0.168976
-0.124341
-0.184024
-0.706872
-2.030071
-1.693932
-3.500346
-2.198508
-2.426768
-5.852714
1.717921
-3.201652
-2.077115
-2.193115
-8.601517
-16.079449
-7.970019
-2.802112
-6.786476
26.740375
60.942044
90.347093
95.062964
106.635680
109.915038
114.885869
114.438290
106.453951
87.626562
60.516101
45.858778
35.931452
43.418498
23.499953
28.431360
16.015394
13.438635
8.466018
-1.257086
3.513290
-5.928764
3.390079
-1.175021
-9.984065
1.016646
-3.131985
-7.004583
-10.548037
-2.765862
-0.900228
-4.084660
-5.352005
-2.116990
0.610215
1.749604
0.505477
0.439446
-2.717946
1.587612
2.282448
2.514941
0.886364
0.186578
-0.003730
-0.255554
-0.103073
-1.521925
-1.109337
0.827622
-0.305857
-4.919527
-3.789067
1.426934
-4.670734
-6.291469
-4.312429
-7.318648
-7.755198
-0.737195
-4.129523
-9.719677
-6.415656
-10.541420
19.059910
65.165585
77.899230
98.093333
100.702199
95.960405
106.441702
104.968926
94.715513
80.344180
50.987208
43.616071
31.169784
16.234488
31.169784
68.249992
93.048191
67.669415
62.452922
68.991770
51.353143
31.852541
19.675075
14.782250
7.760000
-11.735515
-3.059019
3.046505
-0.925414
-4.530278
-4.280532
5.745702
-2.241433
-7.639641
-0.608354
2.949752
-1.555492
-0.433578
-1.899232
-2.176595
-0.243117
-1.710853
1.112897
-0.319443
0.002447
-0.173999
0.337952
0.162800
0.220861
-0.837371
0.989213
-1.934207
-3.028329
-2.420762
-1.587743
-4.076919
0.601107
-0.705013
0.684215
-0.803242
-12.594674
-13.275467
-2.802112
-1.008404
22.827101
71.278846
94.283041
94.441637
99.473905
108.897306
118.904135
109.509367
99.204977
77.597233
57.932188
45.814767
45.770757
31.116542
20.980041
25.929259
11.049608
8.515720
6.019943
-8.514553
-3.610483
-3.574233
-3.483609
-1.165074
7.612789
-1.107877
-5.201934
-1.039490
4.715622
-0.947477
-7.765384
-2.461363
2.228369
-0.722420
1.883377
1.728482
1.545425
1.337726
1.888610
-0.328260
0.240215
0.559733
0.869796
-0.065901
0.000000
-0.267170
-0.106434
-2.523991
-1.126761
-2.508552
-3.659324
-4.198592
-6.362561
-5.225771
-3.643962
-5.195536
-1.856891
-3.345436
-5.013505
-5.421107
5.902553
0.925068
-2.736835
-2.851158
23.117460
63.599222
88.855832
97.988979
105.661991
115.029320
103.744799
105.376969
104.650264
77.799729
56.062048
36.148423
33.722492
23.746773
16.219201
16.234488
13.693706
8.651574
-8.502578
-3.571743
-1.143884
-12.839732
-5.738352
-12.467380
-16.528636
-7.434661
-3.062484
-4.954266
-2.851158
-6.391200
-11.220772
0.846756
2.304499
-4.826008
-3.153770
-0.556817
-6.787125
-3.154840
-3.411210
0.325487
-1.768993
0.574341
-0.120998
-0.319443
-0.000000
-2.857012
-6.358441
-11.076736
-12.839300
-15.470021
-16.898923
-18.806610
-13.493934
-13.766067
-11.076928
-7.611533
-5.729798
-4.773183
-5.058400
-0.813189
-2.559238
-7.991560
-4.643297
6.676722
24.934842
73.092552
92.577658
99.327487
120.366485
114.073726
117.137690
109.834321
103.600698
89.835915
75.277180
50.773512
45.858778
35.965936
33.417443
13.582155
11.081605
8.557139
-3.711982
5.966826
3.513290
1.116830
1.097476
-10.188701
-1.142693
5.258597
-1.068088
4.892679
2.805704
-4.559201
-0.894011
-2.435989
3.712298
6.207405
3.128010
4.034198
4.650221
4.944896
1.853198
1.558103
2.250451
-0.197702
0.625602
0.565279
-0.008152
-0.166289
-1.049603
-1.913120
-2.529427
-3.628910
-2.970377
-2.706477
-1.281809
-2.369684
1.612436
0.606923
-4.402102
-4.728183
-9.383541
-5.429259
-2.483938
-0.848110
-2.729906
-6.709129
25.006268
61.238629
86.810746
95.889981
98.644268
103.832837
118.163318
108.007021
94.444640
70.596230
48.640157
33.754186
33.690798
31.199134
23.746773
21.253076
8.750638
3.749270
3.724299
-3.575207
-8.331385
-8.160192
-8.021608
-7.891175
-7.679222
-11.735515
-11.376003
-8.974107
-0.913090
-0.872758
0.907937
-4.030786
0.794139
0.732957
-0.610594
-4.092324
-1.555492
-0.435819
-2.665717
0.326711
-0.765621
-0.952520
0.132153
-0.063860
0.007135
-0.270308
1.213391
-0.176564
0.658302
1.375144
-1.007745
1.119465
0.407569
-0.491146
3.644861
-0.601810
0.597692
7.306442
-0.748532
-0.809459
0.800338
4.355606
-2.812987
-2.914486
26.740375
75.239751
92.059886
104.956035
116.865718
95.826967
64.922421
46.948620
23.161337
6.061256
8.598558
3.657624
-3.777232
-16.170624
-13.638796
1.180584
-11.104176
-1.276981
1.165784
1.149846
-3.617733
5.748455
3.375997
-7.935731
-7.717625
7.372559
-5.147873
-3.015986
-0.992240
4.509055
0.820830
4.007393
11.238715
-2.106115
3.169323
0.556707
2.573231
2.248626
4.135968
0.925847
2.218454
1.674506
1.852340
0.158415
-0.002241
0.063629
-1.840410
-1.230958
-0.675548
1.424630
-0.973482
-1.881808
0.449074
-1.413454
0.551859
-0.556817
-9.412383
-4.687423
-7.909275
-5.421107
-4.205027
-6.195551
-0.886202
-10.656978
25.211718
65.830540
78.070438
91.483550
98.848289
96.641665
108.938975
110.539450
91.904877
75.546433
65.832213
46.365562
36.216499
21.273050
13.784307
6.266007
11.171367
-1.180856
1.270133
1.262791
-1.145004
-8.217257
-19.613088
-16.949301
-14.303068
-9.572381
-13.422412
-12.966900
-6.660217
-6.350439
-6.016206
-2.404258
-5.282522
-3.455789
-5.699345
-0.555697
0.548189
-0.430217
-1.122449
-0.296894
-0.755228
0.981280
-0.633077
0.066076
0.000000
-0.059684
-0.123097
-1.199587
-1.619023
-0.844621
-1.681919
3.423672
1.267319
-0.499850
0.507754
-1.772617
-0.659007
-8.838698
-3.634146
-3.916468
-2.570113
-4.469098
-10.192929
-2.928986
30.782300
77.659505
88.516456
107.827954
108.766320
120.990390
119.385042
114.664453
106.557505
84.746277
72.737278
57.988107
43.418498
33.545848
28.458698
16.061681
18.452153
13.360352
18.113744
3.555534
13.008077
1.112276
10.249684
5.571398
11.938205
3.122533
-1.063114
10.842239
4.727426
6.320520
5.989169
3.983786
2.217808
-3.483975
-27.270484
-35.475770
-32.809009
-22.135731
-19.835087
-11.996191
-9.175919
-5.767270
-2.826608
-0.776687
0.042396
0.067300
0.858553
-1.925960
1.152709
-0.270006
-1.637870
-1.143235
-3.873036
-3.309728
-7.887472
-5.174544
-1.856891
-7.370006
-4.972745
-8.576941
-12.584900
-0.849230
4.664037
-2.865016
21.160328
67.461669
82.526196
89.090241
98.644268
96.252374
101.560589
105.683001
89.712520
70.729935
58.385660
43.533931
36.352651
21.293025
16.280348
16.219201
6.260096
6.224628
-6.040371
-8.421058
-13.109367
-12.916771
-5.738352
-12.390342
-5.459566
-7.442813
-13.437596
-6.953690
-2.823444
-0.870517
2.657665
-0.771926
-2.248362
-3.426749
-3.142154
-2.874984
3.690128
0.474770
-0.360755
0.959613
-0.744835
0.951724
0.916340
-0.190539
-0.001120
-0.173999
0.108154
-0.525623
-0.237491
-0.844621
-1.699939
-1.934207
2.136490
-0.498607
-3.741370
-0.604297
-0.660250
0.646646
0.689907
-0.814433
-2.555613
-11.494968
-0.963642
-4.835516
24.964561
69.051909
88.318875
101.732790
111.127607
107.267762
114.193089
112.470636
89.227742
74.914224
55.571646
50.822286
30.938224
23.522527
38.339631
21.000234
15.984536
-1.278224
1.161230
3.559054
-6.000846
1.121384
-3.494484
-1.168804
-3.320484
1.013230
-5.171900
-1.032029
0.906215
0.866369
-12.881324
-4.042612
-0.785834
6.186074
5.663457
2.868326
-1.569618
2.207312
3.359678
3.418371
1.251204
2.048413
0.836661
-0.516974
-0.064199
-0.302019
-0.598229
-2.323110
-2.099206
-3.720012
-2.331483
-3.442698
-3.862540
-5.238611
-7.957583
-7.500760
5.681075
19.605924
33.741288
35.315923
37.902590
32.907393
34.426864
27.979288
65.403516
96.829564
106.555919
105.148661
117.259589
108.715175
106.650411
108.320085
97.544901
68.185483
48.502885
53.623174
28.734787
28.680774
21.153202
13.732535
11.213763
-3.644494
-3.613315
-1.159569
-8.298777
5.934973
-15.001519
-19.156045
-14.303068
-11.696996
-11.350324
-0.950062
0.998486
-11.843305
0.905490
-2.390400
-5.274370
-9.095051
-0.608354
-2.869176
-3.586898
2.281772
1.155817
2.228936
-0.238636
0.592178
-0.122119
0.454043
-0.003464
-0.055953
0.330911
1.535853
0.679424
1.398751
-1.711953
-1.163620
1.284921
-1.475368
-0.554560
0.561261
4.415252
4.713468
-3.646160
-0.815676
-0.879090
-4.481112
-0.966129
6.718141
28.793438
75.413515
84.342437
108.299333
113.614164
107.931959
121.872847
107.948785
89.401506
89.662151
65.271669
48.479554
38.487091
33.417443
30.908504
13.543013
20.919463
10.953617
8.424599
5.949120
10.601651
-3.548858
-8.078340
3.302070
-3.320484
-3.233485
7.132330
0.942646
4.697916
-2.754987
-0.890281
-7.248410
-6.806827
0.659169
-4.496355
0.554431
2.573231
1.327165
2.559686
0.911766
0.233385
0.549172
0.359074
0.600172
-0.064199
-0.456514
-0.356828
-0.512724
-0.682477
-1.405548
-3.672163
-2.698325
-4.725022
0.495572
-4.744206
5.225317
-3.124730
-1.992000
-7.883596
-5.445563
-5.853165
-13.268481
6.513447
-2.851158
33.110520
71.933939
88.855832
93.686903
96.377909
112.478964
108.512182
102.955926
92.344613
73.140374
53.471839
38.746578
33.595715
16.280348
16.249775
21.173177
1.290935
-1.170772
-13.404681
-20.566916
-22.637501
-19.931030
-5.720928
35.072020
51.990252
52.591286
48.737416
47.083431
31.677668
24.562905
23.358530
26.836948
23.502619
13.257127
5.797664
5.299510
9.976323
-0.436939
-1.129377
-0.928445
-2.298631
-1.710853
-0.384543
0.069747
0.002447
0.172496
0.107015
-0.514748
1.549066
2.463764
1.617122
1.894511
2.973875
1.404612
0.500923
5.162172
-3.159604
-0.706256
3.547045
0.742277
0.801477
-4.457085
-0.962398
-1.002187
32.810161
77.123923
92.163440
103.921728
111.716831
111.652899
121.872847
118.905361
96.189870
82.846344
70.337489
50.627191
35.828003
33.385341
30.967944
13.595202
18.363098
20.717538
6.037649
3.548493
-5.994839
5.801573
-1.194916
3.316152
5.400243
3.115493
-7.239467
-1.032029
-4.799475
-11.727974
9.302667
0.767323
2.203727
4.771454
3.133912
3.992779
0.491815
-0.457574
2.576254
3.248757
1.665039
2.298934
0.330911
0.046677
0.013460
-0.342675
-0.896724
-2.028678
-0.692870
-4.947983
-1.004661
-2.755390
-3.032559
-2.404532
-5.854918
-9.975451
-1.870748
-3.386092
-6.465556
-3.914625
-5.836861
-4.419925
-2.740299
4.865022
31.251935
69.614674
82.977652
93.786569
103.924155
110.940749
101.660256
100.923874
85.365923
58.330527
53.572729
31.287185
26.216118
23.746773
16.234488
8.783659
13.654877
-3.637565
-1.168532
-13.199245
-5.906785
-12.878252
-10.328095
3.442479
-12.095028
-5.285324
-15.459445
-8.942619
-4.762600
-8.176409
-5.999902
-2.400793
-5.217306
-3.467405
-0.608354
-2.874984
-1.538171
-1.323381
-1.887616
-0.298015
-2.246151
-1.721349
-0.621461
-0.054897
0.000000
0.172496
0.596092
1.209431
-7.024240
-15.338919
-22.940255
-21.806431
-28.822805
-26.154824
-25.042617
-19.242909
-14.599566
-14.359909
-3.622132
-2.403364
-4.240838
-4.487119
6.461344
-6.820031
31.077220
73.346052
83.872301
104.600216
111.245452
114.073726
117.609069
109.942639
101.458036
82.607134
55.571646
55.732257
43.376869
38.339631
23.432229
33.385341
6.114374
10.942951
3.587217
-6.060914
1.131630
-1.213567
5.683534
1.073569
5.400243
3.126054
9.151123
4.910385
2.809224
4.479546
-6.023103
2.369183
-2.272864
0.660307
1.862255
2.832914
-2.612981
3.956954
1.847296
0.901205
0.725188
0.538611
1.278627
0.561030
-0.115558
-0.331059
-1.133571
-1.271718
1.199999
-1.997250
-0.321542
-5.889312
-3.032559
-6.210143
-2.631046
-6.381347
-3.142154
-6.035218
-5.013505
-2.331506
-5.893925
-13.303536
-6.456416
-4.797448
33.226698
67.766581
87.000704
105.371434
94.695207
103.624127
113.836792
108.007021
85.285008
63.230592
43.575001
51.179612
36.386689
21.213126
26.191455
13.745478
8.734127
6.206894
-3.609851
-8.404753
-8.306929
-12.891091
-15.001519
-12.390342
-12.082188
-5.296940
-5.116891
-8.911131
-10.438703
-13.619035
-4.268916
-10.491953
-6.717460
-0.665492
-0.604992
1.758697
-1.538171
-4.891938
-1.864384
-2.201051
-0.237516
0.592178
0.363868
0.283744
0.002277
0.058062
0.111569
0.521009
-0.243708
-1.435638
0.982172
2.683943
-0.452601
4.276923
-2.667043
-5.320527
-1.942991
-0.706256
-3.646160
0.745692
2.499435
4.414625
4.556271
16.335759
36.880667
77.570242
92.681212
95.166518
111.481142
118.562418
121.750239
126.864923
115.908348
80.371888
68.194720
63.291894
16.077110
-16.155090
-50.931334
-52.849378
-55.412371
-47.659287
-49.807130
-51.772912
-43.850305
-33.827169
-26.399968
-16.840674
-23.106172
-1.107877
-3.124735
0.946061
-2.874611
-2.736862
2.527598
2.376223
0.712677
3.399497
3.086696
3.976212
0.484984
1.277880
0.350646
2.070944
2.133129
-0.176564
1.620797
0.362632
-0.114129
-0.497274
0.137047
-2.444580
-0.234154
-1.469436
-3.075337
0.409918
-3.057015
-2.439380
-3.741786
-7.622229
-4.491774
-7.447045
-6.507540
-8.653980
-4.205027
-4.431541
-12.101428
-8.701210
25.153018
70.086105
89.147800
100.296412
107.821932
99.168583
113.168475
103.553927
92.344613
65.956542
46.018254
36.352651
31.287185
33.722492
23.791410
11.256159
8.742383
-1.179735
-1.166291
-3.568278
-13.096527
-10.548512
-8.054216
-16.949301
-12.069349
-1.019524
-11.324644
-8.932123
-4.750984
0.950765
-2.549760
-8.897935
-5.241762
-4.842312
-1.881141
-2.898216
-3.619506
-2.224483
-1.905040
-0.928445
-0.741370
-0.952520
-0.377614
-0.197468
0.021404
-0.052223
-0.351623
-1.507842
0.216308
-1.411610
-1.007745
-1.163620
1.260278
0.456523
-2.661036
5.172838
-0.659007
1.988987
-0.752262
-2.381614
-0.880333
-0.921366
2.738817
4.792347
36.968688
77.838033
90.549439
90.986223
102.360388
109.462712
117.491224
111.363642
99.108568
75.204589
60.399499
48.201202
45.726747
18.469964
30.849065
11.092270
11.006945
15.814816
6.025845
-1.257086
1.130492
-3.530733
1.090646
-1.171291
-1.135232
3.126054
0.976800
2.918354
10.385586
4.450036
9.315714
7.199310
2.186125
7.502151
5.631460
-8.563662
-24.090214
-24.931340
-19.392904
-16.518836
-11.204751
-6.529019
-2.131831
-0.680793
0.076847
-0.069462
0.392407
-1.304326
1.217733
-3.197093
-4.433647
-4.314150
-4.814900
-4.313869
-3.741786
-4.059716
-4.418406
-8.836927
-5.054265
-8.589781
-10.947465
-6.195551
-8.333849
-10.567100
25.329119
63.599222
89.245123
89.660114
87.763087
103.832837
111.332190
108.111376
94.805804
60.810470
51.083410
41.242929
23.836047
23.791410
16.341495
13.758421
8.742383
6.206894
-3.613315
-10.810913
-10.716448
-12.891091
-14.986336
-5.604767
-12.082188
-7.418357
-7.222708
-0.952303
-10.528581
-8.186905
-5.999902
-8.910774
-8.243108
-7.665320
-7.023334
-4.043412
-1.541635
-2.230291
-1.893424
-0.298015
1.265024
-0.964136
-0.125480
0.181934
0.010599
0.053508
-0.118124
-0.525623
-0.231274
-0.840996
-2.306899
0.366584
-1.297744
3.288659
0.500923
0.552154
0.597692
0.643230
3.558849
-7.065315
-9.324886
0.843600
0.881169
4.768739
38.922819
79.456539
85.611292
101.843489
111.716831
102.757921
119.144589
110.050956
98.819341
82.288188
53.099265
53.252731
38.413361
35.862486
28.376684
23.319357
20.838693
8.474302
8.408031
8.350045
-1.232218
-3.548858
3.383038
-5.622414
-7.642126
-1.102904
-5.153880
4.874973
2.781061
6.295669
2.506476
5.550129
-0.768427
2.013629
-0.649059
-0.588132
2.514211
3.871629
2.493416
0.887123
0.682944
1.567850
0.745540
0.394629
-0.146944
-0.225183
-0.929333
-1.304326
-1.219690
-4.947983
-0.330505
-1.980545
-3.105927
-0.466068
-4.828175
-4.108628
-7.100372
-8.897662
-12.379892
-10.233830
-2.522045
-15.241376
-12.071061
-4.820680
25.358469
93.293021
138.377651
165.238915
171.527679
167.136555
167.351479
156.979236
144.438996
103.064979
81.258914
56.325994
36.250537
28.734787
23.746773
23.679818
3.767107
3.738568
-3.613315
-10.821409
-5.930018
-5.825473
-8.037912
-16.931773
-14.227149
-9.551389
-5.105275
-10.888093
-8.585754
-17.239157
-7.746071
-7.263254
-8.255948
-9.019132
-3.130538
-2.863368
-0.498559
1.359155
0.391563
0.324263
-0.241997
0.198229
-0.117637
0.396255
-0.007460
-0.181249
0.352033
-0.182781
0.219723
1.404653
0.992733
-0.407838
0.415538
-1.460868
1.577108
-1.787117
-0.663980
0.653477
-0.755993
2.341020
0.810584
6.196263
-4.655311
6.693290
27.093489
79.823120
100.642370
97.249249
106.974924
123.550784
114.654942
97.373204
96.377924
84.828396
65.397798
50.627191
48.386770
35.690070
23.522527
28.404022
23.274209
-1.275737
-1.260816
3.552014
3.492168
-1.212324
-1.191186
-1.165074
1.040553
5.211382
-3.110235
0.943784
2.766980
-2.729612
-2.570113
3.924767
-0.773400
3.364086
0.589723
3.934793
-0.532179
2.136490
2.460281
0.851920
0.686465
0.158246
0.507564
0.126732
-0.076216
0.081984
-0.132202
-1.353239
-3.158215
-1.504285
-3.800561
-2.796150
-3.967500
-4.418829
-5.931956
-7.652597
-4.475470
-8.882479
-9.444276
-3.926241
-7.599127
-9.848075
-8.333849
-4.814872
29.340810
63.742302
89.342446
87.540296
89.763542
98.869582
113.836792
100.826552
99.727881
73.486355
51.035309
51.323916
28.788800
31.375235
13.797250
16.249775
3.767107
-8.559642
-10.936865
-8.412906
-13.083687
-8.176496
-19.513731
-12.377502
-14.287884
-11.645637
-3.059019
40.885968
47.073511
46.480767
43.968293
40.061340
29.193246
25.917828
17.178187
13.449177
0.545741
2.258127
4.258251
4.760290
2.769804
2.135597
0.129705
0.301478
0.001224
0.051231
0.344992
0.167354
0.217446
1.386948
-1.004120
1.122986
1.270839
1.408132
1.563027
-1.754492
1.865775
4.680333
2.136841
5.442440
2.492394
4.391017
0.882307
0.918738
36.968688
73.515052
84.060356
99.435805
99.579841
109.688875
112.176664
106.995361
94.119799
81.969241
67.802044
48.293986
43.210355
40.737975
25.879347
18.416531
18.434342
8.457734
3.583697
1.143015
1.128215
-1.213567
5.648123
1.064461
-1.133989
-1.105390
-1.061871
0.941507
-6.643868
-4.517153
5.881480
0.759354
5.177359
1.999548
3.074892
-4.034975
-0.527205
1.288441
1.073701
-0.312096
1.648471
0.169631
0.949242
0.281648
-0.212572
-0.071703
-0.662118
-0.935096
-2.683504
-3.841482
-1.719182
-5.147282
-1.299130
-5.367008
-3.733634
-6.432706
-1.894998
-3.374476
-6.528532
-5.478171
-9.321646
-9.809556
-8.354841
-8.753691
31.324698
72.500348
89.147800
89.565135
89.856177
99.467584
108.725578
98.683113
89.969331
65.832213
43.492862
51.275815
18.794330
21.253076
18.776699
18.688546
3.770674
-8.584098
-13.379001
1.265239
-15.472215
-15.259643
-10.359583
-10.107679
-9.855774
-7.442813
-9.247004
-10.939452
-10.438703
-8.113433
4.344826
-4.007554
-5.258066
-9.034316
-0.604992
-7.546311
-1.541635
-3.138535
-1.887616
0.330381
1.799660
0.585043
0.134600
-0.187075
-0.004481
0.168976
-0.114394
0.503407
2.005141
1.404653
2.311173
0.362031
2.101078
4.276923
-5.800105
-20.198976
-38.529013
-38.110304
-40.963482
-46.196548
-41.175964
-38.086410
-39.675479
-22.283549
12.883289
65.226660
71.204798
79.670729
99.897649
107.267762
111.837420
104.693526
78.824788
60.224597
57.932188
52.996954
43.251984
30.878785
33.385341
20.838693
13.438635
13.308163
8.416315
3.548493
-3.577858
-3.541608
5.654025
5.524183
1.033723
3.104932
-3.088485
-1.025812
2.766980
-0.933800
2.499435
7.081988
2.179085
-0.708743
1.812970
3.934793
6.433930
1.256758
1.066660
0.873042
-0.714122
-1.166032
-0.105690
0.206567
-0.231115
-1.017310
-0.405329
-2.105716
-0.236395
-2.676488
-2.413004
-2.787998
-9.455257
-6.392348
-3.782547
-8.851496
-3.194427
-4.768944
-5.111329
-7.116310
-5.910229
-8.071448
-8.354841
1.020512
23.333511
59.766126
82.616487
89.850072
96.876244
108.933260
106.650411
89.027692
87.589055
68.185483
53.673619
41.281655
28.815806
18.776699
13.797250
11.256159
-1.185337
1.288488
-13.353322
-10.831905
-10.716448
-10.517024
-5.732544
3.431777
-7.654766
-3.152557
-9.267996
-0.953423
-4.710327
-11.767386
-6.008054
-10.431218
-2.241433
0.724392
1.915659
0.604476
-4.628750
-3.065167
-0.364116
0.323040
-1.219690
-1.328783
0.367436
-0.056018
0.014081
-0.064657
-0.618706
0.169631
-0.699622
-0.873621
0.318769
0.370000
2.142392
-1.493493
3.702847
6.406184
1.876336
-0.711230
0.696738
-3.964523
2.502955
-6.283153
2.731777
10.607389
37.276761
88.020124
94.812721
110.247818
107.088005
110.028119
122.363281
114.664453
106.143288
82.288188
68.063828
58.155865
38.229036
33.353240
-8.724271
-38.226651
-55.358728
-47.566293
-64.306110
-51.721652
-46.171387
-38.328411
-35.416955
-23.431964
-14.166771
-7.382076
-3.095735
2.890192
-2.867361
-0.931313
-0.875360
7.071322
5.111089
4.738319
-0.646573
2.791601
