80.019102
16.529349
-21.724863
-6.725067
2.722640
0.126548
0.222537
0.140592
-0.383104
0.615697
0.005299
-0.530684
0.656080
8.198169
32.419613
52.617599
65.118143
82.989001
87.172682
90.493600
103.904928
123.431204
129.036220
115.511763
112.775909
112.220455
120.422348
112.265551
103.643420
104.542771
100.628493
113.012970
105.400129
87.543283
90.331007
71.225907
75.911715
59.934032
64.048830
56.939272
52.193264
46.125853
41.109770
36.096066
31.224298
21.343765
20.887794
2.299937
4.518347
4.426235
0.025756
-6.118432
5.827664
0.023033
3.548744
1.668247
1.597517
0.017792
4.056867
8.278294
1.082897
4.866536
4.780091
2.716348
3.157757
1.226495
0.870884
0.529788
0.229440
-0.553199
-1.636910
-1.290828
-2.106866
-2.707146
-6.418730
-5.071826
-5.812840
-4.660999
-6.949061
-5.649695
-10.793358
-9.155635
-2.839926
13.381037
69.517824
131.126112
151.420495
139.993270
132.355990
136.069653
151.466381
147.201035
131.039683
141.343240
140.065472
132.395210
135.813557
128.909502
96.498007
97.321994
74.292566
61.670737
55.092717
47.085374
44.352039
42.245568
39.683541
26.576282
19.132498
16.687919
-2.417654
2.277778
-11.464174
-6.748329
-4.300054
-6.267316
-0.024325
-3.903126
-5.602386
-3.534550
-8.380381
-6.199745
-2.929707
-0.016303
-0.014947
-2.202006
-2.871930
-1.710571
-2.854898
-1.143531
-0.973419
-1.385049
-0.002453
-0.233433
0.217129
0.529788
1.267956
2.332105
-4.374042
-14.869777
-19.891639
-21.847089
-23.418394
-24.803029
-23.158501
-28.411540
-15.595974
19.917839
74.510066
126.544454
138.143806
137.349478
147.134333
145.649001
147.647376
147.978055
138.604318
133.786811
146.043104
128.437302
136.669955
128.192409
103.545953
77.555472
59.991884
62.309601
49.805650
52.648879
47.362594
32.164789
26.929260
22.103716
12.015392
7.199306
0.028746
2.341399
-2.222685
6.655003
2.163355
-4.075270
-1.956153
-3.763998
-1.775292
-3.385683
0.019510
-2.930747
8.140640
-2.447078
-1.106583
2.990034
0.010362
0.714615
3.375034
2.173639
0.644786
0.566074
0.222335
-0.205138
-0.368576
-1.471275
-0.411263
-3.120207
-3.713188
-3.601681
-7.407207
-7.281429
-8.015217
-2.197281
-8.381687
-3.876398
-8.329964
-7.332834
-1.599883
23.682744
76.719754
98.175287
108.598256
122.163443
124.808909
132.027105
123.454918
115.303402
116.446076
118.676394
113.098801
105.287767
86.022396
62.022806
54.369851
37.307193
29.783336
32.267619
29.670733
14.721734
2.419269
-0.029808
7.240521
-0.029231
-7.038351
-2.327319
-4.536321
-2.227475
-4.300054
-6.224873
-4.025985
-13.404113
-7.339820
-6.981780
-6.548363
-4.597918
-8.513506
-0.015842
-3.593450
3.206316
-5.703908
-1.630240
-4.009678
-0.006723
-0.437412
-0.614293
-0.185425
-0.049922
0.000799
0.344209
1.218006
0.412184
1.560333
0.007875
-2.949413
0.010273
-3.717990
1.060947
1.163383
1.270697
0.016579
1.443863
-1.549216
-6.715439
-1.758634
25.758155
67.735754
102.130913
121.986275
133.117988
118.677629
115.158442
128.561892
119.166456
123.638626
111.048397
100.982377
74.476109
72.134579
47.500009
30.011447
-24.832735
-42.196356
-49.407399
-56.435398
-53.609452
-46.020483
-33.362842
-14.036415
-18.455304
-8.992347
-13.242989
-8.463951
-2.032305
-1.949014
-1.877621
1.821901
1.717026
-3.160609
-1.449267
-2.705673
2.472486
2.254325
2.011925
4.226520
4.950082
3.447460
1.788343
0.326820
1.129840
0.391098
-0.176843
-0.725502
-1.750704
-0.408885
-3.021377
-3.048481
-5.038893
-1.630240
-0.915238
-3.013405
-5.473142
-4.786429
-10.423545
-2.773771
-4.406927
-7.956654
-8.533394
-10.758361
3.687422
59.742429
88.317592
104.003250
124.324456
114.512575
113.276677
111.223726
116.877361
111.123673
95.582466
76.187969
64.199916
49.565269
32.145624
37.131215
19.864035
19.732734
14.707673
-0.029981
12.169274
-4.843468
-4.772588
-14.104465
-13.850331
-9.026377
-6.628075
-0.026028
-8.310297
-3.988182
-7.660171
-1.837607
-5.206258
3.229995
-4.583770
-4.230084
-6.485379
-1.195752
-3.190248
-2.801193
-0.803507
-4.758954
-1.077376
-0.864736
-0.614293
-0.344949
-0.052299
-0.187152
-0.768577
-0.299848
-0.416456
0.529254
0.634129
0.008970
1.677412
0.946316
2.084645
-3.447916
1.270697
-2.662574
-7.161871
-3.112721
-3.347373
-3.548502
7.366039
52.258551
84.516980
110.477476
124.531321
117.118897
124.320675
121.425655
121.795108
117.061541
95.963974
72.274375
67.161675
57.382810
47.408399
39.850513
32.384237
29.866744
17.333733
9.860052
9.811718
4.857708
-16.649784
2.365789
0.028302
-2.220305
6.633231
4.280794
6.168760
-1.956153
-5.621759
-1.777672
3.422696
1.609712
-1.475444
2.724582
8.700656
2.254325
-1.972986
-14.488370
-19.621922
-14.628971
-9.959068
-6.129965
-3.796919
-0.970005
0.567649
1.388044
-0.003520
-1.573492
-1.997486
-1.796725
-3.531060
-4.800319
-6.240981
-4.955254
-6.522786
-9.482792
-7.751103
-12.274800
-7.368144
-12.700167
-8.509854
-3.586529
-3.704662
48.116084
76.270874
106.443119
109.316724
103.609536
113.394062
111.787169
116.647287
118.948022
90.505627
73.870049
61.729415
54.318218
44.436519
22.245446
27.143931
17.196597
4.877666
2.405352
-2.455690
-7.250563
-7.144457
-4.706433
-13.737382
-8.998110
-13.285587
-12.763200
-2.077709
-1.999260
-9.498550
-5.453838
-6.878137
-6.510675
-6.039569
5.524820
-3.869325
-4.720475
1.046108
-1.847606
-0.009638
1.950450
-0.006579
-0.005021
-0.285269
0.164687
-0.030904
0.164832
0.587847
0.003819
-1.719690
0.541449
-0.640152
-2.238626
-2.526552
-4.710492
-2.078340
0.014181
-2.490177
2.690646
0.017822
-3.136665
1.719465
5.370450
5.588171
48.088067
80.782809
106.186654
118.223925
108.872078
113.503338
121.550965
121.672207
111.076763
95.682004
79.207999
71.924886
47.133568
42.134440
34.839340
34.839340
24.845904
19.863333
9.840718
2.463347
-7.198155
-4.736125
7.039643
4.605611
-6.730275
4.406842
-6.312782
0.025075
1.999945
3.795993
3.616617
0.020723
-1.556355
0.018059
-1.325520
3.693998
1.131676
-0.975697
-2.526552
-2.101861
0.585350
0.005447
0.957972
0.978137
0.301894
-0.059431
-0.168784
-0.891289
-1.611180
-1.520850
-3.670832
-5.022426
-4.048948
-4.555067
-8.994465
-9.946821
-7.228715
-9.139168
-1.390686
-13.290645
-7.980195
-6.859292
-8.992432
-9.392619
32.950746
68.798585
96.760750
120.562470
160.087793
175.364984
189.230983
183.862050
184.507528
139.309721
120.673574
94.112015
64.382996
44.563240
34.719363
27.324546
24.814153
12.309824
9.757394
7.247537
-12.029143
-19.040844
-7.038351
-11.499484
-11.216999
-6.578559
-2.153780
-8.206653
-2.006391
-9.498550
-0.022132
-0.021036
-0.019680
-4.498886
5.468636
-1.278956
1.136569
-0.012754
-1.790902
1.512310
1.241588
-0.515861
0.784161
-0.268628
0.139172
-0.035369
0.107314
0.638648
0.004204
-2.259114
-0.549722
2.024805
-0.761519
-3.487417
-2.915253
0.013174
3.570623
2.574294
1.382889
1.485325
-3.170187
0.020990
-5.355427
1.897509
37.285446
77.752123
101.329951
114.309065
102.430069
116.018751
117.118094
114.863745
112.074459
88.497670
79.362250
59.991884
47.362594
39.811935
19.998458
37.325792
17.485784
19.766816
7.380740
12.220680
0.029605
2.402373
-4.645138
2.319449
-4.463163
-2.156052
6.350194
2.065797
0.024009
0.022944
7.221038
0.020605
-3.131876
2.947591
-5.351215
-2.418345
2.230085
2.931975
0.010184
0.008497
1.139283
1.730342
0.329259
0.881531
0.241668
-0.353106
-1.448760
-0.590667
-1.667713
-4.158129
-1.242763
-0.009003
-0.829657
-4.578607
-6.056872
-5.555534
-6.049882
-9.106234
-5.502509
-7.415225
-0.019737
-1.744895
-3.624332
3.706093
40.857183
70.986963
98.864903
108.229115
99.410829
104.968135
111.787169
109.503795
104.177349
82.925440
63.955810
51.995571
44.478759
39.683541
32.176123
24.767245
24.696883
4.887002
9.719938
2.396074
4.774979
-2.405768
-9.374994
-11.534795
-6.769550
-8.762558
-10.546098
-10.216532
3.902133
31.953447
41.565887
41.064399
41.742151
32.632237
20.589347
17.638882
19.666728
7.203536
5.258766
2.245123
1.852226
1.529490
0.774825
-0.003116
0.132213
0.000059
0.001391
-0.223696
0.346332
-2.235080
0.563399
1.352595
1.551364
3.499352
0.011872
-4.265601
2.360982
-2.542854
-4.081354
1.492642
-7.978997
0.021049
-1.777672
14.998843
39.246659
87.150554
111.499233
116.985952
113.192023
116.387455
124.271196
125.059653
109.421711
93.320864
74.042268
64.675531
44.871632
19.863333
24.845904
27.433354
32.290188
24.677048
7.373482
2.456030
-9.626423
-4.702603
0.028450
0.028006
-11.139353
-2.148913
-8.377486
0.024986
1.973117
0.022944
0.021878
0.020605
3.146359
4.368933
-1.327899
1.231674
0.013648
1.977989
0.848757
4.128260
0.007016
0.441451
0.331698
0.002250
0.277743
-0.000808
-0.180670
0.592788
-1.611180
-2.072863
-1.233312
-2.192853
-2.461654
-5.478011
-2.022443
1.087859
-1.214770
-6.544230
-6.909107
-2.976961
-3.246305
-10.363041
-0.022132
1.848665
39.098361
81.695150
103.303022
121.219845
109.169897
107.030085
114.921736
110.259738
111.663633
78.646424
64.199916
51.995571
32.328616
34.653669
27.247140
22.182129
19.789006
19.563918
12.204412
-7.285931
-2.429540
-9.535170
-0.028538
-9.139442
-8.951000
-4.375660
-0.025855
-0.024874
-1.982619
-9.404389
-5.397248
-6.793338
-3.180150
-2.972235
-1.369291
-4.965449
-2.296513
-3.027552
-2.631424
-0.748831
-0.618083
0.975533
0.361847
1.194674
-0.001558
0.014544
0.001539
1.195501
0.004293
0.921122
1.741767
1.367139
0.009503
1.754980
0.987778
3.258557
-3.541492
-27.102526
-42.554516
-47.318585
-48.261458
-55.025195
-45.030741
-37.513025
15.751681
57.230244
90.673882
104.106114
98.507767
111.587975
120.197392
119.648423
105.181703
81.443494
74.331495
47.225178
56.883829
39.850513
19.921244
29.866744
24.821781
14.789312
4.925580
-9.703281
-2.367849
-14.122970
-6.960616
-6.831049
0.027444
-4.319499
-6.233602
-2.001368
-7.772232
-1.837166
1.797512
1.692637
-4.678801
0.017792
0.016223
2.428854
2.210693
1.929509
2.460247
-1.360020
2.213678
0.877490
0.610849
-0.325639
0.137890
-0.083203
-0.572971
-0.003607
-0.836384
-2.091707
-4.396681
-0.736945
-3.297737
-0.927124
-5.061185
-3.338796
-2.452449
-7.920526
1.382440
-0.018410
-4.880867
-3.477846
-7.273865
5.591759
47.091684
87.722981
103.303022
110.992994
105.154300
116.740204
119.733543
112.547099
116.858160
90.939915
66.479987
66.733485
42.086001
39.645998
27.195535
17.393504
19.732734
22.034389
12.169274
2.398394
4.770311
-2.403391
-11.699578
-6.882729
-4.498519
-19.576189
-6.338053
-8.112432
-7.829769
-1.894661
-1.797194
-0.020690
-0.019449
-4.399854
-6.732554
-6.214665
-5.614385
3.932923
-0.860561
-0.727436
-0.599065
-1.414744
-0.708800
-0.002799
0.177370
0.000296
-0.142785
0.258530
1.110377
-2.856331
-2.372981
0.008615
0.009858
0.907292
-4.006206
0.013618
-2.408767
-1.292203
-2.767928
-3.002579
4.898721
0.021375
1.841413
5.675259
52.779184
93.783375
104.384942
115.713981
114.298134
121.844523
113.359990
120.491867
107.838965
91.222725
64.299511
67.356912
54.730031
42.421348
39.811935
22.451122
-9.885818
-51.575702
-53.874320
-64.954913
-48.010894
-54.330840
-39.617917
-29.757254
-29.037572
-6.485537
-12.550546
0.024720
1.963361
0.022736
0.021760
0.020457
0.019095
-4.275704
-1.301722
1.209723
2.186453
0.011694
2.431217
0.008171
2.175011
1.672342
0.596305
0.500758
0.000266
-0.282949
-1.599280
-0.933731
-0.425526
-2.167084
-4.413148
0.728332
-5.054453
-3.712309
-0.012696
-4.541455
-6.179354
-5.342334
-5.634419
-6.077258
-1.654560
-5.234553
-3.652684
1.857943
53.044565
85.781087
101.645188
113.535922
113.627132
107.692126
101.350832
103.369773
102.444309
71.338522
61.964127
59.822211
49.753016
34.719363
29.727034
14.820160
17.327868
12.274687
14.567064
-2.446181
-4.819841
-16.532837
-7.010056
-4.593025
-8.941578
-6.514896
-0.025682
-8.065322
-9.745725
-3.737740
-12.481963
-8.392152
-7.862493
-11.627709
-4.010799
-6.144044
-4.466078
-0.996064
-2.553613
0.702817
-1.167158
0.463906
1.357795
0.410751
-0.001068
0.072720
0.153654
0.518737
0.004589
-0.972127
0.607300
0.008674
1.599844
-1.791012
-3.996599
-2.198060
1.224357
-1.280304
-2.763139
0.018385
0.020042
0.021434
1.834096
13.245270
53.495055
84.481342
109.771799
113.531107
118.523813
119.796621
115.720863
115.673460
97.749127
78.899497
66.901358
62.189079
49.853865
37.361960
32.258838
27.353760
19.824726
17.249261
14.760341
2.456030
7.192048
-9.405457
-11.583965
-4.511051
-6.600708
-6.435150
0.025519
-4.013016
0.023743
3.723273
1.778000
-1.630127
4.615684
4.281845
0.016135
2.404614
3.273071
-1.872422
0.807295
2.658347
3.230183
2.004578
0.572065
0.464471
0.087088
0.182037
3.550383
9.529837
11.350936
12.523748
14.844960
14.089942
14.440884
12.046984
6.144601
5.610281
1.215433
-0.016275
-0.017313
-4.583770
1.616712
-6.991202
-3.666860
13.274854
47.429663
86.569879
108.718057
108.816041
105.816341
112.390927
113.252122
122.607148
95.124695
78.646424
59.202584
49.471396
37.236802
37.201606
14.904525
7.394873
17.245824
4.896337
4.844993
-4.885996
-9.591703
-11.840820
-2.343959
-4.559948
-6.663444
-4.328406
-6.281463
-6.076325
-7.801503
-1.875643
-3.548726
-11.642147
-6.218589
-7.215132
-3.954209
-1.210016
-2.230358
-2.921446
2.476651
-0.701286
-1.138806
-0.451676
1.320338
-0.192557
0.203464
0.000592
-0.518267
-0.273671
-0.399798
-1.010437
0.624373
-0.721064
-2.476165
-0.911444
-3.030423
2.264021
-1.218431
-2.643419
-5.629824
1.543860
1.665808
-1.732457
-5.456201
13.346637
65.297957
90.767113
109.013381
108.683663
110.407150
110.468154
118.443505
109.313266
100.587142
88.497670
54.411833
59.355519
47.316789
34.940617
29.895685
24.942393
17.283050
24.556437
0.030138
4.877100
-2.377368
0.029131
-4.606827
4.542587
0.027296
-4.271611
-4.118370
4.052938
-3.831042
-3.677800
-6.965226
-1.615849
-3.055256
-2.811027
-1.270785
3.563366
-3.188783
1.856788
1.580452
1.952231
-0.528304
0.399989
1.092339
-0.135646
0.043455
-0.311244
-0.657856
-1.337939
-1.780778
-2.742456
-0.663250
-4.560303
-3.439068
-3.825375
-3.140732
-3.466123
-1.271824
-8.033474
-5.719218
-9.233554
-5.029415
-7.066579
-9.204295
5.689983
61.343322
88.833399
102.208632
105.363914
94.359195
105.832070
123.424534
157.035153
169.130543
142.979933
131.646963
104.120491
84.521695
69.666396
64.566075
47.352905
34.587975
9.804215
2.412311
2.398394
-0.029519
-9.488060
-11.652497
-13.638552
-4.479617
-8.649492
-8.329141
1.983198
-7.773237
1.818511
-7.038312
-6.633162
-4.661581
-5.728640
-2.641462
-3.642966
-4.409545
-0.011773
-0.827280
-0.691777
-2.270727
-0.005511
1.254790
0.378077
0.243467
0.048779
0.002013
0.287797
0.004914
0.507303
1.231395
-0.706785
0.834124
0.931682
-5.058972
-3.368736
2.472486
2.671254
1.426790
0.018888
3.330584
-1.734836
-5.492192
9.551935
55.610520
100.488219
113.031869
111.717208
116.538554
112.886883
109.081372
110.965908
102.533774
88.671195
66.771200
47.041957
32.258838
29.982506
29.837803
29.866744
29.606278
7.395254
7.337195
4.852860
2.412129
2.390179
2.336521
2.297498
-2.184609
-8.569630
0.025608
-7.983590
-5.758524
-5.492192
-3.447937
-4.887547
-1.508760
5.655030
0.015809
2.360982
3.200498
2.772313
1.551364
2.523013
1.056867
1.575675
0.528433
0.271489
-0.009451
-0.471105
-1.547895
-0.332814
-2.236338
-2.242461
-3.939085
0.742249
-4.307893
-1.890134
-5.225968
-5.755627
-3.763219
-1.350273
-5.690951
-1.561847
-5.043562
-3.525100
-7.339820
11.361185
57.383945
88.631505
98.164644
117.903647
99.060317
101.436112
111.554037
111.231666
85.775914
79.022003
64.077863
49.753016
37.131215
32.237120
19.845278
22.245446
14.834221
2.423908
-12.241007
-0.029779
-4.824567
-9.478638
-13.949161
-6.861508
-6.712960
-10.805042
-4.196097
-8.046478
-13.634650
-3.704662
-3.539276
-13.208174
-4.647434
-2.873003
-0.016044
17.984883
29.279079
29.470991
26.570275
17.016664
12.793656
9.758691
4.401509
3.421443
0.619253
-0.584649
-1.009814
-1.162472
-2.006766
0.006306
-1.842728
-1.431852
0.010066
0.934121
-1.006633
-1.120861
1.251185
-5.245536
-1.389773
-9.247011
4.993067
-5.240257
0.022381
19.032445
59.942422
99.247828
111.150212
114.408279
105.562147
103.782535
123.179999
118.554843
107.732929
88.757957
66.771200
59.413370
42.216414
42.339374
32.196139
22.385983
12.353514
4.944972
7.344453
0.029634
2.424324
0.028924
-2.279799
-2.227444
-4.376965
-4.262034
-10.262144
-3.965128
1.938971
3.660249
0.021167
-1.596811
1.526788
-4.153335
0.015720
2.365830
1.053630
3.615352
3.054683
0.629251
1.502274
-0.380760
0.976338
0.502669
-0.007132
-0.001558
-0.458357
-0.347077
-2.295189
-2.261305
-4.066152
-2.298959
-2.617276
-0.972292
-3.211469
-1.179111
-5.087937
-0.016650
-2.896630
-9.402977
-3.378614
-3.567628
-12.893637
11.473672
68.000457
91.209864
109.196991
110.576818
108.293820
111.336414
111.664377
107.014065
98.221985
76.260737
69.403504
49.471396
37.236802
39.683541
27.324546
17.311459
19.751491
9.766759
7.254553
-9.685924
-14.386837
4.681626
-6.974688
-0.027846
-6.677591
-12.862030
-14.490933
-10.051750
-7.697860
-5.503354
-3.506198
-4.944530
-4.597918
2.795906
-1.309860
-3.558081
-1.079267
-1.871232
-3.175249
-0.008108
0.528853
-0.418394
-0.003607
-0.159275
-0.113180
0.082925
-0.387893
0.312187
0.424379
1.076259
-1.283399
2.996682
0.010391
0.951194
3.178726
4.601357
0.015454
2.690646
-24.229139
-43.559318
-50.212146
-56.335318
-45.933764
-17.128056
31.864979
66.559399
94.372349
97.023258
96.891519
107.307691
105.082020
113.150843
90.776866
69.513150
69.378173
64.863542
47.316789
39.811935
37.181118
27.300698
17.350628
12.268983
2.463347
4.828619
7.177533
2.375545
11.544437
2.282864
-8.761774
-2.103697
-2.032305
3.985065
9.479480
3.626313
1.743855
-3.208497
1.519471
5.539029
-1.237469
-1.137520
2.070101
2.663453
0.009148
0.621934
3.395790
1.095862
0.236579
0.297552
-0.094221
-0.527638
-1.524807
-0.708800
-1.400597
-0.007127
-3.389817
-0.793998
-6.980388
-6.817325
-10.838955
-4.701630
-8.941564
-6.803175
-8.697048
-3.165974
-6.765071
-10.673649
-5.574091
11.515855
66.464419
95.896815
107.290034
112.549530
95.147987
111.899858
111.664377
101.261122
90.679342
71.134309
59.484232
44.732200
34.817904
34.752210
27.195535
19.864035
12.309824
-2.491348
-4.900172
-2.443804
-2.405768
-2.374864
-6.946393
-9.073487
-2.232229
-8.564693
-8.300874
-2.011146
-5.758008
1.802274
-3.487297
-3.284108
1.491457
-0.017313
-1.295596
-1.190998
-3.190248
0.904617
-3.966557
-0.663250
-1.077376
-1.677135
0.280663
0.141491
0.131097
-0.083291
0.002457
-1.574170
-1.274073
0.536571
-1.283399
-0.737722
0.853635
-2.807280
-2.049607
2.297957
1.260941
1.353622
-2.854126
-9.376844
-1.665824
-5.312238
7.385372
27.007240
76.195249
110.477476
120.103173
114.408279
119.801009
120.423173
111.791674
106.672565
102.634992
86.546555
64.362181
44.828236
39.773358
32.540986
19.844030
19.824726
32.227489
14.716886
4.925580
7.242850
4.784987
4.702571
6.894496
-4.458375
-47.941259
-65.548886
-65.197920
-59.170860
-52.527414
-43.286338
-39.211248
-30.238110
-22.459918
-12.342594
-3.764635
0.013973
-6.159865
-1.743124
-0.732962
0.614617
0.005891
1.074090
0.234140
0.470955
-0.021395
-0.706212
-1.235871
-0.370850
-1.428891
-1.157707
-0.687023
-3.895936
-5.322706
-5.816857
-8.504408
-5.885099
-6.355907
-0.016621
-8.711166
-3.156523
-3.406966
-7.141956
-1.868511
23.083493
64.073925
95.896815
105.833830
105.927358
113.628832
99.836627
116.647287
106.704178
90.592484
78.796656
66.796860
46.907021
39.908803
17.311459
27.247140
12.356674
14.707673
7.352777
2.412311
-7.300079
-4.791489
-0.028798
-4.635553
-9.073487
-15.429550
-4.281153
-4.163020
-12.000796
-5.758008
-3.662134
-3.473121
-3.265206
-3.038390
-1.409704
2.525184
3.515020
-0.012956
-4.555067
-1.564086
-1.938199
-1.063200
0.812166
-0.280514
-0.149766
0.016237
0.297552
0.831338
0.324381
0.882338
-1.087058
-1.936304
0.009237
-2.533750
0.960949
-3.159990
3.498050
5.084693
-2.681729
0.017763
1.590200
0.020783
-5.319436
-3.687377
36.460952
72.186334
103.984481
116.075049
112.454615
115.158442
106.642561
114.054031
109.421711
95.400033
71.505499
57.105599
44.828236
39.657625
37.398129
32.478286
27.141510
17.266155
7.337195
7.315423
0.029516
-9.491922
4.717115
-6.867040
-6.679888
-2.167950
0.026111
0.025223
2.007262
0.023181
-3.577235
0.020960
-7.978997
-4.455658
1.380450
1.258502
0.014003
1.012167
0.880464
0.736565
1.197459
2.354775
1.066833
0.638648
0.641990
-0.214071
-0.753293
-1.609519
-2.935150
-1.959798
5.957273
16.786270
17.555317
25.935092
24.586145
21.731742
19.034584
9.008522
15.016889
8.745863
6.330133
-0.020892
1.774440
1.837067
31.086067
74.871258
109.263065
105.603757
102.052353
104.752151
112.237924
112.436759
109.024416
90.592484
61.788093
59.427903
37.236802
24.814153
27.247140
24.673430
19.732734
14.806099
17.016098
-9.751879
-0.029577
-11.946752
-9.450371
-9.233663
-2.282151
-4.422913
-10.640260
-2.077709
-11.916085
-5.701418
-5.432617
-0.021065
-9.713586
-4.491812
-5.530776
-0.015409
-1.169603
-0.012696
-1.795627
-1.531008
-2.506280
1.003539
0.756155
0.771761
-0.389055
-0.007132
-0.215496
-0.445359
-0.333165
-1.360451
1.110195
-2.001087
-2.303410
-1.733546
2.953747
1.080458
1.197528
-2.557220
-1.344558
-1.449267
-12.624275
-1.682482
0.021996
-1.841925
32.912408
82.801596
106.801159
110.242394
103.976450
109.658440
114.185790
124.307791
121.455801
85.703021
71.785090
61.948036
49.853865
47.316789
29.750981
39.657625
17.367522
27.088447
14.774827
2.463347
-2.367849
0.029190
2.363350
2.314571
2.258475
2.204818
0.025934
0.025105
-1.932355
7.540039
3.616617
3.398456
-1.570634
0.018000
2.724582
2.487030
-3.347142
2.011925
0.846318
2.177209
2.329679
1.846343
0.994259
1.563586
0.224978
-0.197864
-0.321323
-2.539614
-1.965623
-1.997486
-3.072022
-0.008714
-2.419212
-5.435655
-5.014105
-5.520223
-3.614671
-5.210424
-4.180568
-5.935926
-4.817203
-3.444769
-3.638508
-9.357308
33.070421
78.919622
98.864903
104.011650
107.054244
102.791431
100.038520
100.373732
97.095155
95.948682
69.009166
49.565269
39.608454
22.414292
54.782917
91.895348
96.681115
91.287345
66.353237
65.782866
53.233919
42.746918
32.748538
20.662516
4.476251
-2.222720
-0.026057
-2.075331
-7.933412
-5.694344
-3.638508
5.072574
7.987916
2.954606
2.725892
-0.015322
-2.301238
-2.064971
-2.666792
-0.751208
-0.620460
0.489421
0.756155
-0.496160
-0.001558
-0.007074
0.126826
-0.226076
-0.342684
0.475597
-1.139735
0.682908
0.782905
0.010717
2.910203
0.013263
4.756025
-2.547643
5.452029
1.487764
-1.568254
-1.687241
-1.770533
1.892631
40.904129
81.168407
108.894627
114.692224
104.202978
111.587975
124.015757
117.374018
116.714521
91.133553
66.966437
57.050156
49.661006
37.289623
24.942393
17.451995
29.635219
7.402512
2.473103
9.715051
-2.379748
11.894635
-6.960616
2.312132
6.713062
-6.478339
0.025845
-4.041749
0.024039
-5.592966
-8.904272
-11.784478
-1.558735
4.412478
1.358499
2.472486
4.504690
0.012079
0.010421
0.712176
1.727253
-0.895506
-0.328405
0.792671
-0.071392
-0.306025
-0.168784
-1.158919
-0.004790
-0.499221
-1.214411
-2.836054
-4.786200
-0.900974
-2.003542
-3.289280
-5.979261
-2.603659
-4.138126
-1.500039
-3.213228
-1.742518
-1.828098
13.077946
35.228191
81.319540
103.648132
106.178941
104.602598
103.002719
122.325800
105.567929
104.883979
93.398369
76.624577
52.241996
37.131215
24.743791
27.427755
24.720337
24.790699
24.626522
-4.923799
-9.761301
4.798317
-11.899671
-7.031277
-2.324942
-9.026377
-2.213211
-4.248076
-4.106316
-1.994505
-1.904170
-3.600705
-5.128447
-8.062586
-10.407124
-0.016650
-0.015409
2.268465
12.132909
21.067332
20.637027
17.970773
12.510440
8.956433
5.914625
2.464245
-0.144437
-0.962216
-1.225689
-0.708743
-0.905084
0.007046
-2.022682
-0.771038
-1.738335
-0.959038
1.095092
-2.336935
-2.557220
0.016816
-2.925958
1.626785
0.020960
0.022204
5.624457
39.102016
85.124288
105.068907
107.719729
95.233482
115.895850
114.540038
110.189923
119.381421
99.895482
78.899497
59.529073
47.225178
44.741444
39.580471
22.364270
32.164789
24.580559
4.915884
2.443836
-2.374989
-4.716970
4.683179
2.314571
-8.915490
-10.802889
-6.262395
-10.069879
-1.934735
-3.711321
-3.524558
1.697515
0.019154
0.017704
-5.322394
-3.627870
1.117043
0.011990
0.010154
-0.685367
-1.111002
1.749676
-1.598203
0.002250
0.405467
-0.000866
-0.002135
-1.187185
-2.012704
-0.522993
-1.242763
-0.008859
-1.649142
0.899977
0.995078
-1.133944
-2.433547
-2.641462
-0.016996
-4.520107
-3.265206
-12.119689
-3.643233
1.857943
41.005038
73.438514
107.520721
109.168196
100.572911
112.390927
127.412006
110.367730
102.444309
78.571307
68.877720
54.679651
37.236802
39.721085
37.307193
14.820160
9.935312
12.309824
4.858996
-4.885996
-2.429540
4.723635
-0.028711
-4.593025
-4.498519
-15.264880
-12.607895
-0.025018
-5.913630
-5.616534
-5.368953
-6.783916
3.127308
-5.869971
-4.074463
3.676388
-4.541455
-3.020478
-0.865316
0.716735
-0.007127
-0.005887
-1.765530
-0.913944
-0.311244
0.067872
0.700395
-0.247494
-0.708743
1.451473
0.595106
-1.379175
-2.375391
-1.776646
-3.958170
0.013529
1.221918
-2.614686
5.548696
1.517032
-3.222864
5.203530
0.022233
15.056754
49.112499
94.005085
105.791859
82.514326
44.405618
41.052770
58.633696
60.079953
58.603451
36.819434
41.847533
34.670544
24.845904
27.406823
34.738062
22.320844
24.797659
19.650994
12.232756
-2.396406
2.431641
-9.424672
-4.597250
-2.244102
-2.196507
-10.742806
0.025579
8.110376
3.917193
-5.564174
5.348678
-6.696224
0.019065
1.475569
-5.245536
-1.197013
1.117043
0.973144
3.306017
0.008349
1.676451
0.872642
-0.603389
0.529788
0.082416
-0.137035
-0.190179
-1.224874
-0.005079
-1.563292
-0.625214
-2.185779
-1.658592
-2.765824
-1.024591
-3.352943
-4.871228
-6.556001
-5.577886
-10.522393
-8.168518
-10.447752
-0.022277
5.633855
47.373333
86.175483
99.968306
108.816041
105.043959
100.816339
104.018497
103.672614
104.984926
86.104557
64.627102
54.369851
54.524751
27.272942
24.861060
29.924089
19.713976
24.532707
7.296649
4.826322
2.375198
-0.029115
-2.367732
-9.186552
-0.027499
-8.715447
-6.345127
-10.204762
-0.024037
-3.751916
-7.132533
-11.708015
-3.165974
-0.017775
-5.342334
-1.229034
-0.013764
-0.996064
-2.518244
1.395619
1.157571
0.454628
-0.004242
0.208758
0.092781
0.130633
-0.605254
-1.321822
-2.710430
0.006099
0.007342
-0.694886
2.438474
-1.800590
-4.035028
-1.092304
0.014980
-1.296963
-2.758350
6.032032
1.643857
3.495416
1.841413
3.786297
59.219353
82.036003
116.500931
115.458542
106.882277
119.796621
122.428137
110.411633
109.963940
81.284424
66.771200
52.294512
34.839340
42.175427
29.837803
32.196139
22.320844
19.747512
9.753718
2.448714
2.421885
2.382862
0.028332
2.297498
-6.579113
-2.125115
6.270363
0.024779
-19.322371
-46.294973
-58.414457
-42.951063
-41.547737
-34.617512
-28.923676
-17.982378
-7.558901
-5.727088
-1.609037
-0.673469
0.006839
-0.416456
0.003641
-0.340005
0.000562
-0.000923
-0.199688
-0.318550
-1.266196
-2.110552
-3.854373
-2.949119
-0.010128
-4.578607
-7.146665
-6.720446
-6.120503
-9.270904
-1.412081
-1.528566
-8.168518
-1.763913
-5.496280
9.416840
47.542322
84.219244
112.360310
113.169677
109.975154
112.505963
110.560974
108.813129
95.674020
81.105183
61.553380
54.628017
49.518332
34.817904
32.328616
17.393504
19.732734
9.766759
-7.377890
-0.029808
-12.052683
-9.516326
-11.628956
-4.578849
-2.253624
-6.500748
-2.113367
-8.159543
-5.885335
-0.022911
-5.347732
-8.380381
6.245856
-2.934433
1.315173
-1.236165
-2.239809
1.951067
-0.843921
-0.008599
-0.007127
1.410218
1.017321
-0.002568
0.074225
-0.033316
-0.557218
0.270724
-1.137308
-0.972127
0.007372
-0.702026
-4.760552
-2.699308
2.021621
1.124359
-2.413556
2.617926
-4.160533
-3.007368
-1.611089
0.021404
0.022263
9.407026
57.176440
79.609683
107.907270
111.594307
106.650930
108.280486
120.443195
119.889407
107.096711
95.682004
71.785090
44.741444
42.462335
39.773358
29.693100
24.870026
17.350628
4.935276
4.915884
-2.386887
7.206563
-2.332153
-2.289318
-6.795058
-2.189368
6.451797
-4.127947
6.030870
5.791377
0.022618
-1.725317
1.670686
-3.036100
0.017260
2.617926
1.192650
0.013174
2.808600
0.009503
-0.647291
0.006454
0.004885
1.131006
0.286033
0.096667
-0.193739
-0.002597
-0.642645
-2.201027
-1.641103
-2.628767
-2.263590
-5.928109
-3.768842
-2.079147
-4.626254
2.492511
31.995307
36.921054
38.375511
39.768815
37.012961
31.115716
34.256670
79.441491
97.320139
119.773621
116.590930
108.181132
108.574849
123.302453
125.744086
107.530542
76.406273
62.022806
49.518332
54.937817
32.359115
14.890464
17.311459
12.309824
14.749855
-0.030010
-7.328374
-4.829292
7.051088
-9.356150
-9.158286
-8.932156
-0.026576
-8.347985
1.994795
-7.810925
-0.022825
-5.319437
-1.678332
-6.228011
-0.017689
6.547280
-0.014832
-1.117303
0.953327
0.811835
-0.694154
0.563646
2.201948
0.327054
0.190201
0.071905
0.092112
0.315121
-0.276051
0.004885
-0.492608
-0.599697
-0.704405
-0.797216
0.011279
-3.037621
0.013825
0.015069
0.016135
-2.777505
1.529226
3.311192
1.768244
0.022322
15.114665
55.340566
94.226795
113.031869
118.287242
105.335619
117.739368
129.489658
113.377371
107.520856
78.513869
64.362181
54.464866
34.771821
24.797659
32.384237
19.863333
22.168854
24.580559
16.995844
7.300909
-2.358330
7.112217
-2.284558
-11.307584
-4.434431
0.026407
0.025549
2.026774
-3.821464
-1.815748
8.682479
3.291800
-3.055256
0.017348
1.309720
0.014477
2.142821
-0.920963
1.565908
-1.283399
-0.516405
2.052881
0.533281
0.143899
0.029029
-0.001356
-0.857412
-0.004069
-0.864736
1.078221
-1.323094
-3.742923
-0.010359
-0.955651
-3.140732
-0.013966
2.459837
-2.679265
-1.440608
-6.152635
-0.020430
-3.529825
-7.377508
9.533965
57.792371
93.177844
113.106889
107.674419
103.348256
110.885660
99.486341
110.799698
95.307804
73.729210
59.427903
34.719363
32.420112
27.298744
24.743791
44.689960
79.322467
74.081308
66.099739
55.655104
45.435603
49.580611
25.569996
18.232146
13.357829
-2.182307
-6.253168
1.978559
5.774175
-5.552870
-1.780553
-9.953602
1.516972
-0.017429
-3.961283
-1.210016
-1.098285
-2.857783
-4.048948
0.663385
-0.561029
