915.170100
1003.766533
253.809599
334.240343
285.325592
202.834414
160.097987
106.643479
78.835837
59.315597
57.932143
29.676251
40.516428
37.463651
27.823324
9.742856
7.306714
8.990962
2.850297
11.609400
9.305914
8.516399
13.657960
12.003805
17.359549
15.134901
10.895170
11.199663
10.177170
8.846580
4.135135
2.399869
-0.973661
-4.320621
-7.483828
-9.432341
-12.475032
-11.903568
-13.355727
-22.316435
-18.009278
-19.548532
-15.396424
-20.938649
-16.978702
-20.838592
-21.215832
-21.675230
-8.486246
-11.563406
-10.668562
-6.949652
-11.527775
12.185849
67.432140
118.475183
153.098948
143.293695
145.024676
149.290108
146.132023
143.755029
148.484728
145.768879
143.357401
154.405912
149.709592
124.481763
102.593343
83.695043
73.912571
56.373104
33.790282
43.511033
33.500375
33.564799
18.556131
18.377191
18.001416
10.735424
5.891059
-1.147264
12.439214
3.326145
1.062753
-1.037204
0.988968
-6.742676
8.201864
-0.858953
0.811644
-3.766332
0.685494
3.225772
1.745332
6.730446
0.449855
1.155210
0.317755
1.786690
0.195175
0.393415
0.492592
0.128825
-0.211631
-0.732597
-1.460622
-0.211200
-1.884996
-6.078551
-4.100941
-7.178140
-1.421029
-8.937684
-6.377805
-4.444970
2.030881
32.874886
40.257798
54.749233
97.450673
129.667426
147.078656
150.213616
153.039189
147.302291
145.012005
135.788324
128.618705
125.619099
108.048114
87.198538
72.877681
55.426740
48.541601
38.548411
28.439055
16.106321
18.530563
8.583535
6.102499
-8.428980
-10.753568
-8.264351
-19.634911
-7.844548
-14.280411
-9.546967
-7.186034
-14.713447
-4.697025
-0.889385
-2.521181
2.348758
0.719473
5.866894
6.406714
0.518964
6.865132
1.169081
1.535923
3.059130
0.847406
0.547283
0.988250
-0.322205
-0.879560
-1.509692
-0.573188
-2.678062
-2.663854
-3.754538
-4.227137
-7.384351
-6.159122
-4.629521
-6.170045
-4.211040
-1.952421
-2.102883
-5.121760
-0.777604
-2.529191
-4.482592
-12.101046
-0.969014
28.854987
73.359272
88.333265
109.177616
110.795330
110.987543
109.295368
114.026248
113.068000
92.257272
80.265857
66.079531
58.374155
46.173934
28.701593
26.130253
23.550873
1.231747
-3.675567
1.216275
-1.210669
1.185333
-5.873329
5.730069
1.124638
5.497527
-3.191940
-7.218925
-6.976623
-0.955854
4.537547
-4.291589
4.012837
-3.760363
7.584247
5.721981
5.249622
-0.520396
4.025784
1.884185
3.490328
-0.256011
2.151932
1.721381
0.345831
0.078729
-0.044587
-0.534955
-0.472501
0.217021
-1.357964
-2.921245
-2.609362
-2.116307
-1.410451
-1.565600
-6.403678
-6.934084
-6.033006
-6.572801
-7.112596
-4.262007
-13.407937
-8.372119
4.849044
53.121537
80.255295
88.949759
98.625313
96.592742
98.592591
99.299566
105.722374
79.524026
62.696571
48.266318
30.999771
40.957671
23.672307
13.654713
6.173116
-1.222611
-3.653067
18.159951
56.673406
58.220362
57.240416
53.742976
52.250116
42.301849
40.741911
30.999195
14.400894
-2.739800
2.599528
-0.807252
0.757216
4.876634
0.633372
-0.570239
2.553987
4.905343
1.109038
2.092340
1.188722
-0.171306
0.559052
-0.217509
-0.053736
-1.039449
-1.203031
-1.320127
-1.687758
-1.456395
-2.397953
-2.723807
-2.184592
-4.371728
-4.726193
-4.043935
-5.585501
-4.737419
-5.013142
-2.299916
-2.486202
-7.905632
-2.747719
-2.858774
12.825067
54.191539
84.851863
87.364561
114.534880
115.323376
115.756315
119.063638
100.612777
97.271992
70.182727
50.921716
55.997283
36.016836
38.575055
28.701593
23.550873
11.154105
8.566092
6.081863
8.449205
1.185333
5.825470
3.422711
5.610816
-7.678463
1.060373
1.019910
-4.960098
-2.822950
-4.518405
7.622151
7.171263
-0.739322
0.681923
1.884816
0.576005
-0.515611
3.064089
1.872260
1.544316
1.234260
1.696197
0.361226
0.425800
0.025047
0.055435
-1.267799
-0.834765
-0.677016
-2.487292
-3.661093
-6.518311
-1.294089
-0.481066
-2.657141
-0.584319
-1.904108
-7.490363
-9.510081
-5.556212
-5.959552
-15.276041
-4.649996
2.935065
33.348473
67.901284
85.127904
87.544198
112.617959
109.293681
109.619794
96.187096
79.753422
68.001820
55.797310
30.999771
31.088006
26.065092
16.121617
13.628828
6.161346
13.434685
-8.503062
-13.247205
-5.949174
-12.820293
-8.009177
-3.370977
3.267070
-5.249617
-11.177329
-0.969172
-4.626482
4.395918
-5.786692
-3.797595
-4.947087
-1.921739
0.589732
-1.579705
-2.310302
-2.716370
-2.836571
-0.747539
-0.557128
-0.127893
-0.469191
-0.010578
0.061885
0.343344
-2.900995
-10.599309
-17.760730
-20.446692
-26.345693
-23.625479
-22.320238
-24.675641
-24.679381
-14.189376
-8.781015
-14.910221
-19.032633
-23.738705
-14.930995
-13.711608
-2.844445
6.887939
35.577160
76.819451
87.074634
98.647953
117.484276
117.853983
123.137285
110.310833
89.709789
80.576063
58.430230
46.085647
43.552790
35.843845
28.509518
28.536957
16.035211
15.957671
-1.226221
-6.022550
10.681747
-1.174780
-1.150853
-1.128123
-5.467449
-1.059934
-3.080884
0.985397
-0.948676
4.519659
0.849727
-0.794352
2.238889
-0.681899
-0.629261
0.573625
0.505790
-0.436654
1.860334
-0.920683
3.179128
-0.566023
-0.354660
0.493829
-0.025873
-0.436266
-0.117333
-2.999223
-1.140454
-2.529629
-1.657774
-2.683445
-4.760714
-0.479893
-0.535039
-6.442489
-7.037578
-6.138848
-11.026264
-2.401292
-2.556442
-0.892905
0.936494
0.973058
41.625108
76.086400
80.817583
105.497550
112.268575
104.069598
106.582345
103.492224
84.498707
65.591381
55.797310
41.112960
33.574910
23.582893
23.582893
8.707099
16.029843
1.229001
-6.066746
-6.037353
-8.313740
-12.846167
-10.319615
-10.107931
-3.265193
-7.375357
-13.225434
-12.720880
-2.803271
-4.420730
2.497101
-5.424509
3.566166
0.658141
-2.968708
5.966657
-2.351452
-3.577467
-0.990842
0.266559
-0.202986
0.142715
0.229578
0.042384
0.132331
-0.555101
0.163043
-1.965667
-0.265582
0.958502
-0.374446
-0.422299
-2.333813
2.563923
1.688108
-3.062010
-0.666347
0.700965
-5.297220
7.353765
-7.894890
-2.722642
-8.560854
8.813783
51.477065
74.629930
87.364561
107.399833
120.015953
99.792095
61.090985
44.982063
20.949713
3.708831
1.237697
1.240077
-8.689447
-18.652083
-3.714973
-13.560970
-1.233399
-3.654072
1.209135
1.197234
-3.557347
-5.837516
-3.428380
7.839727
-3.270753
3.158049
7.163457
4.925116
6.570676
-2.697565
2.539315
2.381949
2.210277
-2.041982
6.941292
1.698837
1.523589
0.440335
-0.374446
2.137348
0.733183
2.791472
-0.122024
0.059505
-0.021157
-0.428034
-0.120853
-1.966382
-3.878995
-1.404993
-2.321262
-4.999673
-3.873825
-5.239373
-0.530346
-7.614181
-6.985831
-2.048680
-8.085452
-0.790825
-2.570546
-4.479516
-2.803271
6.812460
35.451875
65.960487
95.798473
103.276511
117.167983
109.403083
102.092329
105.824719
84.985731
65.404334
55.691433
36.027698
28.574351
26.065092
13.654713
8.690623
13.525285
-6.119654
3.648522
-3.607228
3.570819
-5.849237
-17.200972
-7.861011
-11.992343
-9.515214
-11.216140
-12.720880
0.940033
-6.206495
-2.500024
3.901598
-3.609479
1.974370
-4.222721
1.638833
1.462234
-2.045763
0.996015
-0.818061
0.211124
-0.764222
-0.091520
-0.232853
-0.167127
0.264661
-0.462133
-1.826029
-1.283299
0.940619
-0.366072
-1.228771
-5.926409
-1.504618
-3.910251
-1.841366
-3.270919
-0.701040
0.742618
4.048613
2.592962
0.902091
2.807553
6.812798
47.663816
80.110117
86.881350
109.377906
109.945949
115.874433
122.399936
113.289920
91.899338
80.420960
65.953063
53.456959
36.120631
35.878443
38.464101
21.071396
20.929433
8.557743
3.626571
6.004349
8.265527
5.813545
-1.144872
-1.118553
1.084175
7.388880
3.050754
-0.984566
6.587375
9.854272
12.704777
11.917438
3.672968
6.108456
5.571685
-15.303607
-27.891191
-27.920798
-17.832559
-14.616852
-9.074514
-7.338312
-3.477120
-1.163437
0.341171
1.482375
1.143727
0.900369
0.706393
-0.870953
0.338506
2.718394
-1.297615
-2.427874
-1.593809
-7.660049
-4.494358
-8.883211
-5.194029
-10.427452
-5.967783
-4.520666
-14.060692
-4.885142
29.408973
61.980733
90.023795
96.613670
106.558603
113.651949
111.481742
101.252360
82.680297
70.541662
53.368050
38.621350
23.694661
28.547292
31.029183
16.091026
3.694438
1.226642
-10.965253
-8.428980
-10.721816
-12.872040
-5.719907
-16.953984
-16.389439
-13.760567
-11.216140
-12.720880
-8.425040
-6.222958
-5.844312
-0.779092
-6.477543
-3.286154
-0.598399
-1.625544
-1.435134
2.047897
0.339686
0.275995
0.213483
0.452092
0.088460
-0.025813
0.311327
-0.859308
0.450639
-0.204570
-0.264385
0.316565
1.830521
-1.246683
2.295605
-2.548691
1.680955
-3.050072
0.658122
-2.110048
-0.754874
-4.064774
2.610845
2.718140
-2.833697
0.977067
35.535402
78.834778
91.070428
109.377906
115.082366
124.855411
124.776502
106.084762
87.251790
70.182727
65.447191
55.836217
40.945656
31.048646
26.055094
28.454639
15.973179
11.003809
1.210325
3.601536
1.180573
-8.154711
-1.147264
-3.360314
5.449826
-1.056345
7.088316
-4.906379
2.811129
2.682375
4.203640
0.787842
8.056622
-0.675917
1.849050
1.680955
2.456596
2.152502
0.357028
1.502578
2.093408
0.511439
0.536635
0.397211
-0.168177
-0.917371
-0.930151
-2.415744
-3.149641
-3.852959
-2.428270
-0.396586
-2.198608
-5.368740
-3.794687
-6.545982
-3.227368
-7.529173
-12.636725
-12.084785
9.500057
31.663753
49.941726
53.832078
88.630761
127.110297
132.683988
141.480712
136.908227
136.672011
123.710972
110.904401
89.826608
70.541662
58.332140
50.982317
26.213330
18.689396
11.183104
3.729757
3.701502
-8.568914
-13.376573
-13.286015
-5.955052
-12.872040
-14.922571
-5.596456
-12.031153
-13.714699
-7.136646
-4.908656
-4.714661
-0.890559
-5.877238
-8.615858
-0.725119
-5.958916
-4.230953
-4.995752
-3.416042
-0.409493
1.694812
-0.832166
-0.648807
0.154510
-0.458533
-0.098732
0.314917
-0.261517
-0.422726
0.197555
1.769992
-1.528021
-2.523282
-0.407943
-0.452206
1.498554
2.778576
0.604567
0.654551
-2.088553
3.750482
4.054575
0.864008
4.549472
0.935413
8.792312
51.416217
72.280793
98.042010
107.168367
117.484276
113.880857
120.987116
105.669558
94.625482
70.046714
58.149855
50.872799
30.959169
40.827543
35.947640
33.307104
18.466661
8.515997
-1.217847
-1.201099
-1.183154
-3.489281
-5.694264
-3.345984
-7.586555
-1.056345
1.010389
-4.888472
10.300404
-8.023787
2.525009
-5.531167
-2.188861
3.374838
0.614088
3.949085
4.465936
3.843282
1.065797
2.020462
1.168672
0.511439
0.759761
0.375740
0.042384
-0.393868
-2.219425
-0.550076
-0.237013
-3.208308
-2.403576
-4.333803
-3.103247
-2.439631
-2.698291
-2.962830
-4.494358
-11.636984
-6.646891
-8.848719
0.864547
-2.711591
-15.955865
-0.978558
39.503137
68.207145
92.193073
96.408980
92.904723
100.392456
104.801269
89.225474
77.670326
65.716079
45.965288
26.114505
18.689396
16.152208
21.101002
13.654713
3.697970
-1.223785
-13.402446
-15.610599
-15.503573
-22.168832
-8.009177
-21.364318
1.094542
26.499804
48.213863
56.191933
51.891018
40.233354
32.896340
32.074967
26.813085
18.010382
13.962467
4.987919
1.455170
2.071436
3.092298
1.412343
-1.128697
-0.817130
0.097896
0.029487
-0.021534
0.905386
-0.426308
-1.750840
-0.745144
-0.303864
-2.473150
-1.207277
0.447475
-1.501036
-1.655080
2.987268
-1.948839
-4.837682
-2.235432
-2.421718
4.299042
-2.711895
0.933033
12.747527
41.334150
74.375798
83.417415
104.958555
113.039585
117.974488
120.746105
118.278695
87.167080
72.786284
50.628219
57.925555
38.390131
30.959169
35.740050
23.392204
18.395085
1.216275
10.885720
3.583653
15.290830
3.494240
-7.970896
3.347604
1.079415
5.229209
1.012769
4.883378
6.545629
6.178273
2.514280
-2.350070
-2.178114
3.345024
3.064782
2.766651
2.456596
3.821811
-1.056815
0.865513
1.132896
-0.163895
0.099968
0.202729
-0.049366
-0.239777
-0.670164
-1.704060
-2.190934
-1.469658
-2.444733
-5.167857
-2.222122
-1.491552
-2.733563
-1.777168
-3.227368
-6.191769
-9.647687
0.810292
-6.033635
-6.362892
-8.467377
0.983673
37.695019
74.586488
89.633236
90.427264
113.549648
110.168905
112.028758
94.204861
85.229243
63.356535
43.563395
38.767229
28.628469
21.201007
23.717014
11.172514
1.240796
1.227822
-6.072625
10.875993
3.574351
-12.897914
-12.626243
-16.830489
1.091004
-15.807252
-9.197688
-10.776291
-6.543983
-9.793100
-5.877238
-5.473898
-6.509296
2.002625
-3.039252
-1.650227
-2.433753
-4.501980
-1.011998
-1.387357
0.664010
-0.157226
-0.093867
-0.275190
0.183678
0.250355
0.142811
-2.621893
-10.322558
-18.851381
-19.491020
-19.878919
-23.185303
-23.497939
-22.699844
-15.065015
-8.532789
-9.075784
-9.727379
-0.814689
0.862818
8.169658
-0.942695
6.837845
49.633548
83.039366
93.940029
98.223204
104.230708
124.600083
120.866611
105.669558
94.441743
72.997463
63.159803
45.864930
48.344407
40.985027
23.550873
18.538237
15.942163
15.849116
-8.505631
5.992424
10.595863
-3.496446
-3.406885
7.806331
-5.419698
-1.055148
5.056294
-0.980977
10.221675
0.883049
-5.857021
7.020967
2.167359
1.981381
6.678861
4.949030
1.448483
3.725192
1.729157
2.555031
0.665229
1.427811
1.010358
0.029752
-0.205786
0.576629
-0.143146
-1.756981
-0.754591
-1.510808
-3.175266
0.408094
-3.152636
-7.533144
0.553169
-1.805377
-4.551978
-10.426435
-11.220326
-10.549768
-14.776170
-10.000088
-2.842058
0.983673
37.869130
59.947002
85.778444
101.591001
102.289736
102.447335
100.178323
103.992186
82.837933
55.797310
43.604571
28.682587
26.139211
16.243982
3.743885
11.193695
6.184885
1.231360
-1.213225
-8.428980
-10.711231
-8.190268
-19.454958
-10.118515
-16.336513
-3.166462
-11.254950
-4.891020
-12.231615
-2.665752
-4.203220
-11.749587
-2.175620
-2.009892
-6.675350
-3.901696
-1.470395
-2.081035
-2.436502
-2.593134
-0.677016
0.167484
-0.499684
-0.296358
0.113290
0.719273
0.697625
1.310796
0.247539
-0.917100
-1.060397
-0.405550
-5.001674
0.498649
-2.733724
1.795403
0.652171
0.689064
2.242466
4.042650
-7.776736
-0.906806
0.933033
18.586829
53.812135
85.045148
98.150583
114.043314
112.921466
130.052679
120.505095
120.362944
99.541480
80.188305
60.799635
53.303052
40.945656
3.698101
-40.755239
-50.585428
-59.987560
-62.070891
-66.348221
-53.802280
-50.436240
-28.847266
-35.252076
-23.305052
-7.561490
-11.526168
-15.143630
-8.764940
-4.661657
0.879479
-0.842205
-2.357235
2.167359
1.995687
-1.827036
2.802427
-1.475959
-0.416317
1.747045
2.522825
1.996789
0.472098
0.268238
0.242122
-0.141087
-0.905571
-0.996002
-0.592389
-3.287247
-3.975275
-2.485890
-0.402453
-3.136173
-8.457808
-2.739442
-3.003980
-7.192818
-7.593857
-0.748585
-0.807252
-4.344308
-8.149850
-6.634529
0.986032
42.059206
74.670012
77.175717
94.792877
97.692659
100.592441
100.178323
99.003085
75.276356
58.276849
40.996493
23.694661
21.201007
18.724692
21.221008
13.667656
11.119564
-6.137290
-10.933500
-1.202665
-10.700647
-8.165574
-3.437974
-14.586201
-7.630531
-11.604241
-13.240724
-0.976212
-4.649996
-2.662226
-5.852543
-7.027922
-7.956085
-0.660586
-3.015737
-2.751199
-2.421996
1.243252
-0.342613
-1.950848
0.664010
-1.152400
-0.096213
-0.095205
0.137140
-0.405880
0.703588
0.593699
-0.254815
0.912007
-0.355305
1.216010
-2.274124
-0.503648
0.553393
-1.819871
-5.875517
-3.503703
0.750949
-0.818278
-2.600840
-9.937710
-0.943891
-0.984566
45.581681
76.819451
93.836228
102.970662
122.046802
114.228055
126.029278
112.957041
84.876421
77.420405
48.111758
40.945656
35.809246
18.609813
20.990274
33.307104
18.377191
18.269826
6.040124
3.576500
3.533582
8.081849
-1.146068
1.109167
11.822502
7.305390
-3.034313
10.641564
10.195432
0.881859
4.173827
0.774751
5.051155
8.591399
0.606948
6.035906
3.431446
6.173448
-5.119478
-12.671994
-12.582357
-8.465797
-4.868305
-1.147889
1.088193
2.445854
4.775160
4.600037
4.850699
3.352200
-0.350826
1.214997
-4.967702
-1.484499
-3.852307
-5.366200
-0.651199
-3.450756
-9.693555
-7.313696
-9.534366
-10.064771
-8.499129
8.885061
33.853165
66.627503
85.964313
90.998985
100.093400
105.116576
100.178323
91.846183
85.229243
58.442722
51.030550
31.176240
26.139211
28.655528
13.693542
13.667656
-6.166683
3.673246
3.652054
-8.428980
-5.925659
-5.825722
3.429540
-10.065594
-11.979406
-15.807252
-11.216140
-10.802165
-8.435624
-0.887039
-12.543478
-7.017338
-7.969022
1.992029
1.815431
-0.553812
2.400983
-1.244723
-1.704803
-2.540213
-1.514582
0.156869
-0.282090
-0.102258
0.279121
0.261085
0.146381
1.410984
-0.256011
-2.172362
1.090832
-0.410335
1.366223
0.499839
-2.769537
-1.819871
0.655741
-3.473859
0.744998
4.060538
2.575080
-0.913983
0.938984
6.879590
41.676563
76.645257
90.214803
96.742660
110.640345
122.897338
127.791683
110.636554
91.988822
72.927070
58.149855
48.251347
40.985027
35.982238
21.051115
38.242193
15.973179
13.410208
8.474252
5.974536
-1.181958
1.157961
5.688330
1.107977
5.402125
-1.045578
3.043601
-2.912511
0.925893
0.878289
-0.835027
5.426861
2.145900
-4.653867
-1.830619
2.730876
1.448483
-0.407943
1.019303
1.383326
2.348755
1.085372
0.447196
0.257650
-0.412817
-0.275038
-2.222895
-0.602968
-1.794451
-4.021144
-3.217603
-7.821665
-4.106678
-6.513335
-9.397564
-5.440289
-8.485683
-10.373509
-3.762323
-13.856409
-6.074792
-10.051835
-12.292773
-6.922629
27.571449
72.972467
101.307256
149.572840
174.611496
183.248208
177.248778
158.276968
136.975656
108.280999
68.713542
56.062003
53.620979
28.547292
23.605247
11.193695
11.098384
-3.674224
8.509397
-13.234269
-10.711231
-8.157343
-5.714028
-10.065594
-7.581143
3.161111
-9.155351
-6.865009
-10.258822
-9.741353
-4.167949
-7.027922
-3.615357
4.654220
-1.823008
-7.216653
-4.318362
-2.075156
1.718351
1.418228
1.106335
-0.468975
-0.093867
-0.088153
-0.026319
0.268238
-0.451385
1.385937
-1.283299
0.926313
0.361788
0.407012
1.369799
4.519613
-0.557482
5.475066
1.959922
-3.491766
2.256771
-2.446795
4.340780
-4.572124
0.937794
10.812144
43.812133
81.671896
96.311834
110.559093
117.852950
127.839568
111.403604
105.980961
91.720372
77.871398
48.390936
45.909074
36.016836
33.403739
30.929343
25.979935
18.359297
10.939397
6.058012
3.594383
3.530005
-5.795734
1.135349
7.747888
5.402125
-1.047970
-3.034313
-0.970210
-0.930732
4.394444
2.485668
-5.422549
2.142323
5.936689
-4.211040
2.712988
1.416294
5.257192
1.669531
2.469147
-1.445456
-0.440638
-0.441693
0.113290
-0.263406
-0.093867
-0.149013
-1.481657
-1.827376
-1.551958
-4.010384
-2.872767
-3.234950
-4.582968
-3.885233
-9.173852
-4.601367
-2.101572
-8.318313
-7.387786
-11.360113
-13.707852
-8.530882
0.989570
44.212015
66.701615
94.771461
88.566476
98.092629
107.585833
88.023206
87.031490
80.212215
60.756695
48.771004
36.198283
26.188624
16.228686
18.654100
-1.241385
-1.235518
-11.060511
-15.809363
-10.827658
-5.919780
-22.191180
-14.861413
-19.055061
-16.336513
11.557971
37.695019
46.168092
47.817384
40.021600
36.067696
27.299179
20.982040
20.605347
13.908349
7.173661
5.332457
0.411633
1.045462
0.844140
0.219380
-1.119474
-0.092693
0.028307
-0.149221
0.083307
-1.036049
0.197555
0.251110
-0.307453
1.782821
3.671515
2.277717
0.501029
1.663072
1.827591
1.970651
-0.701040
0.746189
2.446326
-4.321433
2.732446
-4.715376
6.862892
51.842150
80.845072
102.578285
111.949233
104.230708
123.022616
120.746105
103.138781
87.167080
65.510425
60.448868
38.464101
23.618873
23.505539
25.879723
11.078957
6.135526
6.063975
15.725052
3.580077
8.232131
8.098547
-3.406885
7.739539
-7.536424
5.187471
1.002059
-6.801163
6.470488
2.632304
2.489244
5.435210
0.712866
3.255585
1.806132
8.070217
4.272699
4.435079
1.012150
1.371400
1.921641
0.739364
0.423345
0.119252
-0.176359
-0.814985
-1.668837
-0.201813
-1.810914
-2.189559
-4.709172
-0.405973
-4.074925
-4.582968
-0.553812
-3.027494
-0.654719
-4.905929
-8.305377
-7.345449
-0.874132
-13.637283
-6.659223
0.987211
46.215419
81.432856
83.697396
100.091082
102.499132
107.478782
100.275963
97.023506
80.365145
60.641407
41.074138
23.694661
18.654100
13.667656
26.114505
16.136912
3.697970
6.120153
-15.809363
-15.641178
-15.457704
-15.197782
-3.409765
-3.353347
-18.435222
-13.668830
-9.165935
-6.823852
-12.078720
-13.266801
-9.172137
-8.538238
-6.445790
-1.988735
-5.461458
0.549630
-4.339530
-2.034006
-1.704803
-0.279253
-2.905009
-0.775979
-0.464412
-0.031680
0.200376
-0.261517
0.429180
-0.194999
1.761643
0.919160
1.072950
1.216010
5.862002
5.524166
-1.672992
-17.613704
-31.923205
-39.311363
-39.967632
-48.082414
-51.039165
-35.227727
-40.482394
-20.548540
17.339792
41.039237
68.250221
83.845842
99.233887
111.305940
118.591163
105.980961
89.448499
63.159803
40.906285
55.514085
40.827543
38.353147
30.899517
18.484555
10.982339
6.075900
1.203184
3.580077
-1.183154
8.098547
-3.414050
7.731190
1.075844
3.115132
-3.037895
4.835677
0.921132
4.370593
2.478515
2.306842
6.430519
4.583610
6.587010
2.707025
4.272699
4.408836
2.329376
1.920274
3.528800
-0.149539
1.070048
0.158631
-0.238711
-1.481930
-2.222895
-3.104996
-1.281541
-2.783650
-0.360213
-4.514917
-4.106678
-0.501013
-4.995752
-0.603092
-8.562131
0.699422
-5.292806
-15.620982
-9.586112
-0.912852
-16.075834
10.871999
37.782074
72.972467
83.787977
95.092854
104.909569
110.278308
105.210649
82.286206
82.443842
73.363533
33.701968
28.682587
18.742341
18.671748
11.214875
6.214309
8.616485
8.608248
-10.986421
-6.025596
-5.925659
-12.846167
-14.846123
-10.065594
-3.261667
-9.462293
-11.190266
-18.637909
-6.552215
-11.543587
-4.167949
-5.457435
-5.054095
-6.001253
-1.819481
2.754069
-0.478719
1.229125
-1.716560
1.388804
-1.105182
-0.476027
0.488435
0.102427
-0.161158
-0.708929
-0.139969
-0.196195
-0.748727
-0.306256
-3.147215
-2.799004
-4.070971
-1.493871
-1.662245
3.017081
1.938463
6.258752
3.762407
0.809263
6.078084
0.900901
0.944934
16.670537
54.191539
80.845072
85.301505
114.411988
117.361384
123.147893
130.830728
112.846081
101.405004
80.188305
68.113676
53.405657
40.866914
35.843845
30.899517
35.567058
-6.112082
-45.032551
-68.760878
-55.856677
-50.538857
-58.602223
-57.811123
-45.155077
-24.701042
-19.725326
-9.022732
-6.734321
-2.769214
6.136528
7.418178
6.913613
4.984363
-0.651991
4.124414
4.873882
3.272815
1.187398
0.334416
2.926102
1.889435
1.010231
0.719273
0.100188
-0.349279
-0.517319
-1.127705
-1.489888
-1.328570
-3.492915
-3.323445
-2.938619
-5.084132
-2.557204
-3.942853
0.615680
-0.662932
-7.723224
-9.892319
-14.036362
-7.895829
-6.461669
-4.755812
4.960855
40.053703
66.849841
86.521920
95.592817
95.686897
108.656339
107.838719
92.110869
70.541662
53.418636
48.587482
36.164166
31.146829
13.719428
11.204285
8.682386
1.239617
-3.667172
-6.066746
-10.817073
-8.297277
-17.500886
-10.277278
-14.555622
3.260006
-1.051305
-11.125583
-4.885142
-4.673511
-7.969918
-5.827849
-10.091083
-7.904338
-5.916579
-4.206258
-0.546772
-2.404360
-1.216514
0.339686
-1.410871
-1.522814
0.152151
-1.022001
0.123580
0.030942
0.089257
0.142811
0.590123
-0.258404
1.544316
-1.092639
-0.407943
2.289642
-3.601107
-3.926961
3.064782
-5.886258
-2.113630
-5.297220
-7.390047
-4.351277
2.728869
-0.952265
20.593546
50.101238
80.936942
96.311834
103.858340
120.391786
118.577014
125.402890
108.735742
87.082370
77.495571
53.200448
43.385762
38.353147
33.403739
30.929343
16.019703
15.942163
6.075900
1.200804
3.580077
3.519276
3.447746
3.394099
3.311839
-1.080271
7.255296
-1.007296
0.955645
4.615061
7.826124
4.126126
3.827996
3.541791
4.508469
1.773944
4.820205
5.078034
4.277620
1.645680
4.542823
3.006201
2.075710
1.297949
0.250517
0.329502
3.743385
8.159554
10.173567
12.716959
15.852079
14.590009
14.864259
15.334862
12.882258
8.488763
3.101270
-3.327305
-2.122728
-3.832867
-7.472460
-2.641069
-4.608846
-4.779326
8.948602
44.464944
65.158181
80.122587
97.534775
105.551872
101.192396
109.940946
99.479519
68.001820
55.956126
31.205652
31.146829
33.638439
18.654100
16.228686
18.618803
-6.160804
6.149577
-15.855231
-3.610754
-8.305508
-8.165574
-14.846123
-3.360399
-14.081647
-11.539558
-9.134182
-8.795487
-2.782114
-6.173569
0.835060
-10.121662
-7.891402
-7.283376
-5.419121
-3.860539
-0.477546
1.225593
1.027802
1.388804
-1.087547
-0.153706
-0.275038
-0.152844
-0.236310
0.261085
-1.010984
0.201126
1.293886
-0.927848
0.359408
-3.684282
-0.453403
1.516436
-0.555089
-1.827036
0.653361
-0.697451
2.278230
-2.450378
0.866388
0.905661
-4.709407
6.887939
43.812133
83.416389
96.736583
114.411988
113.157704
114.228055
123.997525
100.909862
84.629448
77.645902
57.757329
50.481470
30.869691
35.843845
33.274892
20.909152
15.895639
8.457554
1.200804
3.572924
1.168672
-3.464204
1.125828
-3.313742
9.661881
-7.243991
-3.009236
4.799901
4.579285
6.069735
2.453479
8.397782
4.934269
3.225772
2.975343
1.587966
1.394835
5.869249
4.233668
3.365223
2.970413
1.256045
0.676332
0.107354
-0.517469
-1.360767
-2.699300
-1.915744
-0.265173
-2.222485
-2.559973
-2.922156
-2.292666
-7.691922
-6.222564
-5.567300
-8.607999
-6.350532
-2.288456
-5.786692
-9.728416
-10.064771
-10.543430
-0.986772
46.480112
62.883028
75.732271
118.207943
158.261324
182.503503
180.712064
165.797370
139.842529
118.125964
93.346073
61.160202
63.776511
46.139399
21.101002
31.117417
6.161346
6.131922
-8.519525
-1.200318
-10.658310
-17.483244
1.148798
-12.315761
-7.605837
-1.044265
-7.120183
-4.873384
-8.361534
-7.948750
-7.472460
-0.772052
-6.424622
-0.659412
-3.015737
-0.546772
-0.476373
-1.212988
-0.340266
-1.926154
0.218201
0.156869
-0.090347
0.214176
0.200376
0.257508
-0.143558
0.593699
0.747489
2.137348
-1.067562
3.671515
0.456996
1.502130
0.556964
3.034969
1.959922
0.695015
3.780295
0.822354
2.603692
2.721716
4.722387
20.668705
62.371633
83.039366
107.133651
110.677211
108.358940
118.938529
102.226048
98.768342
84.382475
57.813405
55.567774
45.688357
28.427200
35.705451
38.205208
25.804564
13.449573
6.063975
13.265871
3.565771
8.198735
-1.159228
-3.388973
1.099646
-5.336134
5.157658
7.004825
0.955645
4.585247
2.600115
4.078426
6.881407
2.113711
9.680682
7.614399
4.798734
4.122403
-1.963745
0.320135
1.311774
1.013644
0.968486
0.369682
0.014306
-0.444537
-0.529077
-1.160631
-1.947497
-3.001320
-3.531726
-4.113878
-2.098671
-5.135879
-3.638290
-2.833500
-1.847690
-4.675450
-7.787908
-9.953477
-9.159201
-7.906413
-4.620603
-10.517557
4.984394
56.808371
73.459491
88.712100
104.808154
100.912160
108.335187
108.466905
97.116440
87.783202
58.387431
46.139399
33.733732
21.201007
23.672307
18.689396
8.707099
-3.705959
-6.131411
-8.519525
-13.260142
-5.937416
-12.846167
-17.165688
-14.509754
-7.572911
-9.430541
-19.330685
-12.659722
-8.329782
-13.213875
-9.107454
-3.832867
-2.133307
24.375532
29.340757
30.086438
29.062845
24.398438
15.923845
12.281761
8.826645
4.891627
1.070696
0.370611
-0.367577
-0.283011
0.152332
1.846493
-0.777386
-2.189072
0.367739
0.409392
-0.466562
-2.560628
-1.687322
-1.834201
5.979631
3.500052
8.332174
7.418178
2.607268
2.753905
0.940174
14.852063
56.236435
89.346378
96.311834
112.792769
106.854254
125.876723
118.945520
122.794692
84.547124
63.098955
57.981630
45.776644
45.776644
35.913041
26.004988
33.210468
6.105713
3.651606
8.432507
5.932797
8.223782
1.146060
10.155711
3.301110
-1.074289
1.028241
4.996668
0.958025
-4.584062
4.334818
4.066500
6.795523
-2.106465
3.207884
7.598891
1.580813
3.189325
2.680035
4.063081
2.297381
1.782080
-0.390484
-0.063405
0.028612
-0.050453
-0.765523
-2.487525
-1.506351
-2.434371
-2.942413
1.877239
-4.644284
-3.317264
-6.742678
-4.008704
-8.134024
-8.699736
-6.414038
-8.512364
-7.514797
-2.644595
6.491196
-6.683917
9.012142
46.533051
81.795182
84.603212
95.992787
108.199650
112.649926
105.415339
87.449108
82.759115
66.027826
43.769271
36.300635
38.730759
23.717014
26.213330
11.183104
18.477618
-1.221438
-10.954668
-15.641178
-13.027281
-10.457210
-5.702271
-14.509754
-7.556448
-13.638251
-5.061500
-12.659722
0.934135
-6.190032
-2.485919
-8.512364
2.154500
-7.166945
-4.189796
-7.124916
-1.413977
-0.400106
-3.069424
-1.375599
-1.555739
-0.764222
-0.090347
-0.074049
0.289856
0.264661
0.149952
0.995756
0.758218
2.162395
2.479658
4.474443
2.289642
1.509283
6.193364
1.841897
5.904483
2.113711
-20.426287
-43.509068
-58.039474
-50.007265
-55.967085
-30.480284
17.360072
45.402503
64.057561
76.973282
88.653971
106.619329
113.686210
98.285131
82.016346
72.575105
55.514085
45.776644
30.869691
23.414871
23.414871
20.828030
13.423330
6.058012
13.200263
3.562194
-1.169994
3.437017
1.124638
1.100836
-3.206269
7.230249
-1.000118
0.958025
4.573322
4.352706
7.343030
3.780295
2.095829
3.184034
2.933604
-0.531163
-1.368486
1.913998
2.855623
2.821130
0.196365
1.180897
0.914969
0.011925
-0.688028
0.108511
-1.824078
-1.555739
-1.375599
-3.544662
-3.376366
-2.122185
-5.200563
-2.615990
-7.430706
-5.577884
-11.417041
-6.403454
-2.309613
-4.173827
-9.741353
-8.329782
-8.679061
2.995108
44.616701
65.158181
84.874956
100.614571
107.871440
111.153533
105.620029
89.998361
75.563397
56.062003
38.840168
38.767229
26.238036
21.241009
16.228686
6.202540
11.130154
13.486456
-6.084382
-8.404285
-15.411835
-1.162771
-14.876702
-14.509754
-14.127516
-9.409372
-13.194855
-12.705591
-4.614725
-7.916997
-0.827199
-6.943249
-4.988244
-4.535515
-1.798325
-3.769993
-3.300802
-4.411423
-0.327359
-1.909691
-1.894576
-0.723071
-0.088000
-0.063470
0.034513
-0.290176
-0.154324
1.049419
0.793983
-0.318219
0.367739
-2.077153
3.214372
-0.515611
-0.564660
3.076707
3.285398
4.917571
-2.299916
-2.489785
-2.622334
-4.572124
2.846894
10.851509
52.085541
76.819451
98.584878
110.204736
118.098733
111.986017
113.686210
98.575058
89.535596
58.093780
60.507329
43.302247
45.820787
38.353147
30.869691
38.205208
20.767189
18.180356
15.632004
10.703218
10.531451
19.550362
-21.471131
-49.399299
-54.281602
-58.558968
-50.691227
-42.794828
-31.949039
-37.249959
-25.153633
-25.083176
-15.945895
-13.356551
-5.220295
1.562930
1.355493
0.379640
0.314185
1.786690
2.086324
0.620111
0.883953
0.053682
-0.646836
-1.254862
-1.888762
-2.496788
-3.053067
-3.635219
-4.178562
-3.842072
-4.307778
-4.699394
-6.300185
-6.882337
-4.700144
-9.341896
-6.964417
-14.256305
-15.076093
-12.063431
-4.808719
9.022732
42.493303
75.755818
91.195471
98.762915
108.856068
