896.371407
653.500029
-89.653764
-29.022775
247.721763
157.860169
112.311755
59.573378
26.969103
14.601791
7.080327
7.025810
-5.193320
2.084876
-0.316245
-9.816181
-9.531226
-6.957321
1.901522
-6.666812
-6.368854
-11.883276
-2.120608
-2.042466
-1.940073
-3.403045
1.271115
-0.176678
-2.561159
0.937370
1.823693
3.968155
0.591264
3.787090
-0.948389
-0.045676
-0.023155
0.102056
-0.263232
-0.730501
-1.523973
-1.561446
-1.944959
-3.045549
-2.657198
0.109656
1.909456
-1.824885
-4.300826
-4.629551
-5.067852
-9.648501
6.178826
58.929638
111.987112
146.575148
127.834686
146.352121
149.738753
143.684614
146.741734
143.996103
140.422438
131.146008
122.324575
137.069629
109.539100
98.663499
91.902173
71.964984
64.184397
61.312786
40.043091
49.971224
30.258535
29.714111
17.519717
32.069808
7.451605
-8.912114
-8.912114
7.148213
50.260578
56.593358
53.260706
46.436404
34.601008
18.570134
10.646115
8.304148
4.647079
4.284488
1.450809
5.952317
-1.917451
4.691541
0.100518
-1.181326
0.583536
-0.740533
0.037812
0.256945
-0.020466
-0.107782
-0.234426
-0.042504
-0.058364
0.477956
-0.085643
-2.331522
-5.205312
-1.053568
-4.313617
-2.434369
-0.170017
2.484837
27.448439
86.591147
122.294512
142.257307
143.458583
131.788630
138.664558
155.551106
145.524647
138.389842
131.097456
129.089869
139.240562
130.952882
109.645284
87.395160
83.004950
56.207718
61.242001
53.853502
36.790585
29.140749
29.253588
9.421707
21.499631
18.775522
4.383962
-7.322319
-7.128647
-0.295944
-0.288966
-0.279133
3.745004
-2.209528
1.621341
-3.778343
-5.229164
-0.208081
4.122808
-5.482912
2.262976
5.344861
1.797070
3.189592
1.277916
-0.075810
1.253879
1.222524
0.490648
0.163549
-0.049117
-0.514490
-0.859739
-1.150832
-3.535081
-2.374129
-0.622155
0.915455
3.738532
-1.868964
-0.955744
-6.996423
-2.424364
1.579294
-5.752697
-11.026858
32.713719
77.211416
100.865339
119.394193
127.922036
126.529644
123.050575
122.909592
114.959698
117.564347
115.716121
102.187172
93.836566
86.620244
64.924986
50.113863
32.535038
32.659099
45.092650
17.654485
24.863878
2.775810
10.024731
5.154019
-2.060888
-4.368263
-6.613899
-4.205169
0.293677
-6.092640
-10.021580
-1.710926
0.253974
-10.598541
1.943334
-7.814993
0.200091
-3.939907
-1.096957
-4.401270
-5.985059
-3.415093
-2.145963
-0.546432
0.067747
-0.731717
0.294445
-0.385867
-0.013539
0.204112
-0.456444
0.960853
2.607961
0.484136
3.216172
-1.617841
-17.326092
-28.653781
-34.972197
-33.935981
-26.877965
-28.435380
-30.645905
-17.626933
-18.950277
-5.571816
36.648726
76.671095
99.814887
117.611696
115.248692
115.873966
105.508340
122.283480
118.307907
105.845709
101.816204
85.290225
55.935921
56.588235
36.543193
36.649218
29.027909
31.504486
36.401827
14.253133
2.097236
4.463832
-0.316879
-7.292524
-4.868737
1.930364
-4.610086
-0.279767
1.753191
-0.260735
-2.101746
-9.018281
6.471104
4.443092
2.706697
3.802524
4.651106
3.168770
0.840543
1.526400
1.282353
1.047181
0.803135
0.576837
-0.024424
0.266086
-0.332503
-0.500950
-1.717934
-1.534052
-0.437964
-2.374129
-2.024110
-3.122893
-3.542931
-2.856771
0.147469
-3.432187
-6.401399
-6.769163
-5.761828
-6.218391
-11.805225
-3.350030
26.367794
60.803940
97.528912
109.942709
110.490609
129.597551
112.434458
101.250854
115.829792
119.396344
99.042609
64.616407
57.581141
60.070027
35.346194
25.174976
25.174976
25.174976
5.249743
7.673600
10.073537
0.321406
-6.857604
-6.715443
-1.993351
-6.451428
-8.482945
-6.099409
-5.862473
-3.693849
0.253343
-10.584687
-8.332162
-2.997395
-4.278387
-1.197239
-2.353837
-3.283256
-0.894347
-3.424224
-2.166272
-2.392391
1.073124
-1.488396
0.283738
0.155253
0.005038
0.090647
0.417098
-0.379931
-0.059633
2.132523
-0.743695
-1.612769
-2.666725
0.811701
-1.193684
-1.320328
-1.436193
-1.527808
-1.643673
-1.783790
-5.288756
1.540995
12.650840
63.364903
101.574771
117.611696
115.120638
111.974094
114.513463
111.059618
122.682905
105.949990
101.915732
78.027404
43.959902
-5.244036
-32.314017
-41.952289
-37.199156
-32.220353
-22.233561
-24.474949
-21.907874
-33.867411
-19.219101
-7.255279
1.955086
-4.752091
-0.288966
1.817056
-6.331609
-10.031159
3.478772
5.083661
3.110483
-0.209667
-3.078462
-1.500862
-0.161453
0.953851
-0.129416
3.171209
4.750186
-0.076444
-0.495797
1.561810
0.162752
0.061805
-0.148931
-0.850455
-1.704079
-1.579709
-3.938396
-2.942115
-2.024110
-3.132024
-7.096544
1.124243
-7.491777
-5.815274
-4.967408
-3.960216
-7.171406
-6.200129
-8.332162
-1.551294
3.965017
47.018759
93.694188
111.675243
110.973628
118.576522
116.407592
124.599457
112.978021
97.810500
86.786183
71.964984
59.671080
45.092650
32.628083
25.222837
15.208735
30.115266
12.644127
19.937434
7.636601
5.154019
2.698183
0.311953
-13.577216
-13.272422
-8.473814
-3.958325
-7.944200
-3.702665
4.045628
-6.994549
0.228135
-9.420926
-4.285156
-1.191099
-1.092864
0.153455
-0.892301
0.118794
-2.903742
0.083818
0.570152
-1.083136
0.033401
-0.643588
-0.000634
0.208549
0.201895
-0.704953
2.209672
0.471775
-3.995114
-2.383665
-3.507884
-2.048927
-0.140835
1.003295
-2.708235
2.507023
-3.108892
-4.953553
-6.966639
-0.237263
10.780501
45.956606
85.599722
101.995194
110.599564
113.682049
107.873481
117.536521
127.413832
114.814707
96.668130
72.917062
48.786255
46.554705
31.626833
34.150942
26.814108
24.205688
11.892895
6.991737
9.311404
6.848632
2.041612
-7.262728
-9.393662
-15.753761
4.011237
1.814995
-4.321004
-0.259784
1.611040
-1.993964
-5.221715
-1.767622
4.115994
2.480400
-1.363441
4.228278
3.741107
2.351023
4.030485
3.277384
-4.790503
-6.945383
-4.902205
-1.366764
1.197786
3.792988
5.438525
4.020338
2.059609
2.498862
0.808384
1.733121
1.025203
1.132273
-4.291694
-3.472805
-3.743588
0.184336
-2.785814
-3.019435
-6.684086
-8.826345
-1.631110
37.322558
77.896957
103.500038
111.215137
105.631667
116.528347
104.015244
117.887936
102.883676
79.223814
69.760744
55.091945
35.346194
30.401805
27.764617
20.302378
22.690812
22.496689
10.171149
7.644000
2.743688
-4.465237
9.702612
-6.607129
-6.437889
-15.064634
2.409092
-12.094806
-5.679694
2.138738
-5.151665
-6.583642
-1.379383
0.198830
0.181815
0.167005
-0.986443
0.135495
-0.749042
-2.876348
1.909150
0.065857
0.414899
0.031825
0.236793
-0.036610
-0.253580
-0.280233
-0.393404
0.865256
-0.646691
-2.810238
-0.102772
0.747836
-0.128782
-2.272077
-6.028458
1.112483
-1.543975
-1.670619
2.981804
1.470950
-3.803701
1.600739
46.013342
82.868721
104.319597
115.632855
116.502349
114.634385
118.020211
110.410523
115.497451
96.952448
75.872243
61.360229
46.554705
43.959902
34.183906
24.393329
24.229143
9.384939
2.093116
-7.553237
4.432772
-2.664906
4.321841
1.971567
-11.397935
-4.625301
-6.547628
-0.268031
-6.093242
-0.248365
-0.234408
1.444168
-1.767622
7.010792
-1.500862
2.227479
2.041116
-0.127513
0.696332
-0.762557
2.150907
1.226621
1.213332
0.511092
0.289224
-0.255675
-0.494181
-1.759496
-2.341377
-0.947706
-1.146063
-3.459284
-2.342281
-3.515537
-5.888079
-3.168173
-8.286360
-6.389906
-12.333074
-8.769774
-7.883949
-11.805225
-10.612396
-7.286749
41.523233
73.726198
108.196268
157.060296
176.787027
177.419099
190.260291
176.508657
157.210236
133.592243
109.330653
79.906778
67.729535
45.007004
30.287189
27.790909
20.206340
27.475402
10.151626
0.325187
-4.500501
-2.069074
-6.701903
-6.613899
-8.720358
-8.482945
-8.190745
-5.862473
-5.666155
0.251453
-3.354438
-6.601904
0.213010
-2.754959
-8.077058
-3.587888
2.418308
1.142980
-5.084529
0.097367
-1.146063
0.548738
-1.069597
0.032771
0.014495
-0.001586
-0.150895
-0.744895
-1.072649
-0.060267
-0.074224
-0.757168
-0.102772
0.749896
1.805944
1.983432
3.345948
2.382781
-2.885741
-4.573656
-1.802652
-8.713197
-5.571816
7.160497
48.118715
88.430701
107.763678
127.516581
117.809774
112.380657
122.660510
115.470641
112.973027
101.517623
70.613073
66.039828
53.697556
36.578535
36.437169
28.971490
24.158778
21.583943
11.742498
-5.117246
11.557395
-2.643350
4.295218
-7.083953
-6.927525
1.864439
-2.365812
3.749441
1.681085
7.151305
-5.534571
-3.555193
-3.321899
-0.192221
2.467088
3.475425
3.168770
1.801507
3.991293
3.320293
1.615050
2.151827
1.910645
0.354977
0.197622
-0.219150
0.022687
-2.533620
-1.965241
-1.441925
-1.719478
-0.611922
0.108711
-2.572448
-3.880788
-3.147864
-5.838260
-3.736819
-6.723193
-5.734434
-6.236654
-6.665823
-6.985418
-1.627017
39.511025
77.536740
105.843429
102.848957
111.763084
105.787274
122.377439
113.534563
102.784176
98.379166
66.960610
54.726059
40.119291
25.222837
25.222837
15.310127
7.769797
2.797224
5.249743
2.762426
2.738335
-9.222577
0.313213
-8.921246
-8.674702
-8.482945
-10.285910
-7.880282
-11.554488
-3.535163
2.042375
27.470094
48.176567
47.428049
41.060383
31.338965
24.155342
20.302296
17.497060
10.413610
8.678008
6.389149
3.733171
1.200162
0.419731
-0.005072
-0.016177
-0.759793
0.661144
-0.061219
-1.772850
1.251293
1.437656
0.749896
3.722723
-1.207157
-3.664884
-0.170017
2.529209
-1.670619
-3.372615
-0.226161
5.110919
5.308541
50.176860
84.498492
109.464451
113.234754
113.928648
119.392915
115.937007
113.335430
105.220020
96.383812
72.846062
58.268437
43.917428
46.330453
34.085013
36.507852
21.689333
14.322865
-0.324175
2.084876
4.454958
-0.312756
-2.619099
1.961266
1.920063
-4.584728
7.987769
-2.279586
-2.196055
1.604860
-5.489877
-0.222037
4.456721
2.671200
2.462651
-0.159867
-0.144959
0.828182
0.698392
-0.090401
0.488256
-0.493102
0.906336
0.531536
0.149920
-0.110198
-0.861948
-1.390609
-0.354055
-1.963222
0.080667
0.805707
0.108396
-1.688239
-4.895863
-6.497668
-8.302576
-1.131749
-5.369184
0.198830
-7.895442
-11.853873
-8.826345
-5.408910
37.503297
75.854370
95.287309
102.737649
105.297742
98.806165
104.327915
106.412389
98.284388
79.603239
67.345073
52.602750
42.848895
25.222837
25.294629
20.340793
32.566053
29.971996
10.161387
-2.105912
2.738335
-6.830526
-11.366218
-6.593590
-8.729489
-4.086155
-6.052022
-7.898544
-7.624606
-11.028025
-5.151665
-6.583642
-6.136210
-1.285241
-2.516930
-2.305349
-2.098177
-1.860148
-1.600080
-1.344420
0.079091
0.063021
-1.369690
0.028359
0.310792
0.055151
-0.018080
0.220436
-0.414960
-1.474892
-0.077079
-0.091670
3.014946
-5.424023
-19.719199
-24.967225
-38.118040
-30.922938
-39.961349
-38.207271
-27.411544
-18.923810
-16.327771
-0.248365
42.365448
86.109245
108.380175
116.017017
105.142507
117.750929
122.409157
120.559580
103.331094
84.875793
73.272063
63.581953
51.539689
46.599555
34.085013
21.668255
24.205688
11.869757
4.521516
6.896334
4.454958
-7.389360
6.603308
-4.807878
-4.731804
-0.287697
8.006153
5.771931
1.670785
1.600739
-3.758057
-0.221720
4.443092
1.240213
1.131024
7.028942
4.191510
1.779321
0.700452
3.960753
1.587792
1.206177
1.503965
0.152451
0.129477
-0.132238
-0.693976
-1.402102
-0.354055
-1.981484
-3.657536
-3.516747
-0.710157
-1.705870
-3.917313
-5.413032
-7.093403
-6.447369
-5.405709
-4.312235
-9.573323
-4.968886
-5.205822
5.890246
39.606118
82.077416
106.553788
106.980981
116.714097
108.303068
109.164623
108.717064
95.280845
76.758541
64.492976
57.307985
37.597027
47.669853
35.412948
30.143920
25.151045
12.692618
7.688399
-4.562212
-9.359546
-9.222577
-2.034282
-1.985165
-6.444659
-8.464682
-6.065561
4.347916
-7.569819
-5.402140
-1.553340
-6.528854
-4.542401
-2.741735
-2.508114
-2.296534
-2.089361
-0.859556
-0.732669
0.096107
-1.705939
-1.347150
-1.758373
0.028990
0.096364
-0.003172
-0.017763
-0.834283
-0.417655
-0.062488
1.082679
-4.832962
-4.051514
1.624018
-4.048315
0.939430
-1.344579
1.114543
5.303731
5.689792
-0.214425
3.199227
1.553356
12.781429
48.355170
88.326419
122.727611
122.883945
116.125319
121.523343
118.262056
113.790592
112.750201
87.565688
73.201062
63.581953
51.242058
34.150942
28.999700
36.366486
28.886860
23.994592
11.811912
-12.313187
-59.867790
-68.079733
-69.342151
-70.237202
-55.267171
-41.027274
-39.662731
-36.468888
-15.738781
-7.644633
-7.231941
-1.880793
-7.968792
-4.469371
-5.463260
-2.540872
-1.234102
0.830242
-0.918840
-0.090401
-1.743055
0.794260
0.892707
0.511092
0.143106
-0.053211
0.211465
-1.141408
-2.756715
-1.981484
-0.534153
1.541671
0.107450
-2.599526
-5.901933
-6.483814
-5.895723
-3.757128
0.184966
-1.303660
-9.545614
-6.711480
-8.826345
5.882846
41.623049
86.267067
89.351587
111.577401
110.345892
110.373629
101.963888
106.308166
105.325335
73.937154
66.896533
52.502934
47.534299
27.869786
15.281158
27.764617
17.755560
10.200432
12.583513
10.054014
2.741012
-4.447605
-6.708673
-20.352714
-10.940991
0.290841
-10.297403
-7.944200
-9.584859
-1.627017
-5.138126
-6.519723
-6.099685
1.672981
-5.232215
-5.999157
-0.970070
0.131713
2.678730
-3.493762
0.079406
2.436692
0.760759
0.029935
-0.189541
0.039935
-0.569908
0.220436
-0.047262
0.860818
-0.076762
-2.100604
0.677791
-1.871421
-1.112848
0.939430
-0.157647
2.413842
2.560269
1.277295
-1.829597
-1.942768
5.172250
10.975749
52.372010
92.898831
114.779419
124.219310
120.779252
119.518591
120.956714
117.952272
103.432998
94.150838
73.130063
58.552120
48.597345
36.543193
34.052049
29.225378
21.710411
11.858188
9.384939
2.082815
-0.318148
4.383962
-0.307681
4.228660
4.099981
6.146732
1.796454
-0.266128
3.585265
3.447711
1.512153
1.425626
-0.205543
-1.619422
3.727564
3.407279
1.987870
0.817881
1.495339
2.610502
4.245063
2.468498
1.480827
0.990188
-0.163877
1.241868
5.190248
8.146481
10.505676
10.507746
10.058398
13.103847
13.487397
4.740032
4.216829
-2.093769
3.803501
0.175828
0.186541
3.199220
-11.205234
-1.506269
-8.906794
0.252398
47.588684
84.510920
104.892415
105.599486
105.409050
111.623999
104.015244
106.308166
93.566403
69.561428
64.924986
47.805407
32.876206
25.246768
27.712032
12.753232
17.637639
7.747598
0.327393
7.644000
-6.932070
2.695506
-2.032236
-8.902983
-8.674702
-6.255110
-12.316475
-7.871150
-3.671809
-5.408910
-3.336806
-4.826724
0.210489
-1.258635
-1.164494
2.599681
-5.481988
0.130138
-0.722436
-0.611922
-1.088760
0.061130
1.058172
-0.803551
0.010398
0.032962
0.275107
0.492530
1.433938
0.891879
-0.670942
0.601565
-2.480501
-1.010455
-3.113662
-1.242186
-1.352662
2.409404
2.578018
2.773255
-1.824208
-0.229967
3.372279
-0.248682
56.064996
88.639264
102.343697
102.980486
116.879380
106.065406
118.382978
113.790592
98.412678
84.792906
58.608856
61.064659
51.291663
39.038787
24.229143
31.504486
21.731489
11.811912
6.937221
11.684654
-2.694546
-0.312438
4.308530
-4.807878
4.091106
-0.286746
-10.568107
-0.266128
1.662544
-0.245510
-3.732699
-6.819249
5.937973
-3.027746
-1.487390
2.209730
2.005618
1.752697
3.864034
2.564543
0.475896
0.356407
0.554651
0.786690
0.223141
-0.209858
-0.528029
-1.196196
-1.616234
-1.509621
-1.159287
-0.630341
-5.643157
-4.493621
-2.944776
-6.622357
-3.520192
-6.481847
-8.229456
-7.343795
1.857678
-6.748005
-7.040205
5.934645
41.672956
84.510920
102.303054
101.429405
101.682431
92.597731
102.269474
104.306715
98.568721
123.957574
139.986005
130.256872
117.875590
100.369496
85.202878
70.159377
54.987406
37.311118
15.092859
14.962499
12.413793
0.318570
7.340608
-15.778137
-6.404041
-10.619197
-10.228447
-11.983972
-5.611998
-7.222830
-3.319174
-3.147265
-1.365057
-7.056479
-5.186558
-1.064212
-4.300826
-1.816069
2.612132
0.093586
-2.264554
0.059870
-0.621519
0.628984
-0.141054
0.032962
0.297293
-0.036160
-0.051069
-0.563160
-1.884585
-1.496122
-0.899979
-1.917065
-1.129015
-4.510137
-0.160184
-0.173506
-1.560142
-3.200181
1.405025
-3.671839
6.976659
12.830400
46.580708
94.589842
115.170712
122.613573
112.457783
112.854837
121.080013
108.927151
105.949990
87.565688
65.912091
61.123773
46.420154
34.183906
34.052049
19.261741
11.881326
16.715432
11.730929
4.494892
-0.317831
-2.648739
-0.307681
-0.300702
-0.292138
3.980176
1.784093
-2.271503
-0.256612
1.586318
-1.977797
-1.872710
1.332919
-4.447024
2.431590
2.196418
0.931189
-1.061651
3.898741
4.554302
0.469715
2.872965
0.545777
-0.191313
0.043263
0.010083
-1.094490
0.634806
-0.766981
-3.020238
-0.540292
0.096737
-2.355821
-3.570325
-5.998913
0.149674
-2.278902
-2.468443
-6.792149
-10.426867
-7.964398
-6.729742
-1.581992
9.686153
45.780831
80.586709
102.416724
107.793201
112.828623
106.549901
114.238411
116.398142
103.281679
82.080626
57.581141
52.652658
35.312817
32.814175
25.366420
15.237704
7.769797
10.229716
10.112582
0.323296
-2.089540
-9.204315
4.987760
-8.848196
-13.147733
-12.745958
-8.135957
-9.895161
-3.645361
-9.033213
-10.404581
-6.519723
20.563136
39.663749
33.653775
30.567362
29.191557
21.325914
14.323427
9.087480
6.991555
2.795510
1.366565
0.849223
0.146106
-0.163877
-0.349941
0.514716
-0.811456
-1.549382
2.316361
-0.797586
-4.972021
1.686139
-1.129015
2.063302
-2.591588
3.741193
3.979702
-6.190384
1.400905
-3.666768
-0.240435
14.773568
56.339488
89.160671
112.815664
109.071957
108.500582
124.561755
111.969943
116.051479
101.119515
81.877822
68.100534
51.242058
48.786255
39.114224
29.168959
19.373945
21.752567
21.541787
11.730929
4.481581
-5.056387
-0.310852
-9.482096
-0.301019
-2.489761
-2.422397
-2.341561
5.703786
1.660484
8.873395
1.514213
1.423566
2.866437
6.906671
-1.468528
1.030077
5.206034
2.705380
-1.683772
1.242418
1.002809
-0.057095
-0.342207
-0.183229
0.129477
-0.379257
-0.730501
-0.880048
-2.452212
-3.006384
-3.034056
-2.078267
-1.533961
-3.570325
-3.899050
-3.188481
-5.941693
-7.730701
2.987618
-7.389766
-7.952905
-8.435596
-5.199052
4.035551
43.801755
84.802337
102.757734
109.750402
112.591836
108.859610
109.382516
121.116139
93.296240
81.689393
59.728072
49.923678
42.727510
20.225548
35.145932
10.278522
17.671330
5.269896
-2.128424
2.765102
-2.089540
-4.425566
-11.400696
-15.680841
-6.451428
-6.228031
-10.251432
0.269414
-5.605228
-14.713253
-6.884974
-4.772568
-2.922460
-5.597465
0.178349
-2.270086
-2.054097
-1.798437
-3.186811
0.792324
0.075625
-0.399080
-0.947744
0.208788
0.072273
-0.053891
0.477019
-0.038381
0.727702
0.922939
1.744527
2.693229
2.316950
0.782858
4.858965
2.063302
-5.021089
5.027974
3.993331
4.293172
7.890033
-10.571012
-39.988569
-48.892881
-11.956180
38.212532
52.315802
64.681055
63.750772
74.928412
78.737965
92.672512
86.713052
68.166780
51.192453
48.880711
43.959902
38.887912
38.925631
24.229143
28.999700
16.731756
6.937221
4.486018
2.064274
-4.990456
-4.899167
-2.551736
-0.294041
-6.696608
-18.889842
-6.257119
-0.256612
5.260839
4.974628
1.425626
1.330859
2.653451
-2.784309
2.205293
0.931189
-0.124024
0.688091
1.894447
1.553719
1.199362
0.858634
1.126333
0.219810
0.161221
-0.575416
-0.559808
0.861522
-2.036272
-1.154879
-2.098576
-1.529553
-4.482128
-1.908635
-3.202021
-5.976171
-2.464035
0.187802
-5.871403
-3.059106
-3.261871
-8.883809
4.040589
41.822680
76.555913
107.500933
109.987188
104.044127
110.828309
112.198862
101.689669
95.927757
79.223814
69.561428
52.652658
35.279440
45.263942
27.764617
20.263963
12.704741
0.329598
7.651400
-2.095679
-2.081353
-4.416750
0.310377
2.591112
-6.404041
0.289580
-8.099432
-3.790823
-9.538889
-5.307366
0.236958
-6.474067
-6.017504
-2.693248
-2.450811
-1.043746
-0.951651
-2.734918
0.918132
-0.595549
0.639748
0.516616
-1.517028
0.216818
-0.061397
-0.061975
-0.022838
-0.916221
-0.836814
0.922939
-0.081519
-2.234685
-0.109116
-3.783013
-4.185879
0.970332
-3.813863
-2.794452
-4.365086
-1.708342
1.409145
3.216976
-3.859489
12.879371
58.433050
95.146909
106.774433
114.365844
112.457783
122.547776
123.288894
120.317736
108.258719
84.544246
72.917062
51.142848
56.098999
44.002375
39.038787
36.401827
16.829698
14.253133
14.155509
2.076635
4.437209
11.372292
-7.218034
-47.476033
-59.664996
-72.623485
-55.988342
-55.911720
-36.660735
-33.106508
-21.056279
-14.938174
-12.451812
-4.439575
-2.743736
-1.341884
4.136359
-1.977925
-0.106261
-0.751778
1.533276
0.356407
0.253399
0.606666
-0.086217
-0.145462
-0.361451
-0.893587
-1.597971
-3.103364
-3.057041
-1.370867
0.109971
0.123521
-4.987805
-5.493481
-5.941693
-5.122640
-6.803641
0.202297
-11.334962
-10.224475
-5.246440
0.253658
57.654548
93.049017
102.985075
107.793201
105.631667
113.594773
102.167612
111.234611
88.317842
83.993755
64.616407
44.964181
47.715038
35.145932
30.115266
25.151045
20.187133
12.668372
2.778486
-9.441728
-6.911761
-6.796678
-6.722212
-13.383256
2.532224
-10.550241
4.463793
-3.790823
-5.564611
-7.195437
-8.665448
1.892476
-1.346638
1.638183
0.175513
-1.043746
-6.400688
-0.826811
1.728082
0.768233
-1.044680
0.057979
-0.270146
-0.157585
-0.055257
0.049444
-0.023473
0.249279
-0.053923
-1.608974
0.533580
-0.805669
-0.918840
0.784919
-4.225183
-3.493558
2.276288
1.131024
-0.186194
-1.711037
-1.845764
-5.415388
-3.884847
5.369872
56.545357
91.193306
111.223926
116.913396
101.294618
107.068126
109.296390
116.051479
106.158553
80.085111
65.912091
58.949276
46.465004
36.543193
39.001068
21.689333
21.689333
21.605021
4.517078
9.265444
-5.056387
-0.314024
-0.306412
-0.300385
1.907702
3.997925
-4.402150
1.722288
-4.082639
-5.735693
-0.231553
-5.132328
-3.271183
2.609079
2.396093
6.875533
-2.261934
6.333582
-0.104675
0.564482
2.049796
0.754325
0.238978
0.279544
0.095404
-0.425228
-0.588955
-2.172940
-2.045689
-2.620321
-0.550525
6.837440
21.970813
28.464737
26.115804
27.470354
25.104478
25.484168
14.430143
7.928340
5.209464
10.776475
2.077173
11.660030
61.980317
91.508401
109.162306
112.301930
106.188209
108.970919
114.465751
104.612301
98.284388
76.832065
62.381160
50.018771
45.349588
22.798658
22.647674
17.721868
15.179766
7.695799
0.325187
-6.972687
-4.491685
-13.923574
-6.674825
-11.067410
2.516163
-6.207723
-3.901022
0.270359
-1.686367
-3.473452
-1.534921
-1.444873
3.320135
0.192528
2.816321
0.160388
-0.949605
-3.679900
-3.205074
-1.269485
0.642425
0.060815
-0.608295
0.403051
-0.110198
-0.235824
-1.020649
-1.149643
-0.051386
-1.080251
-0.684415
-0.094207
-0.107530
2.616791
-2.145287
-4.578919
-0.162405
-0.173506
1.207250
-0.200785
-1.848459
-3.681983
-2.050550
12.912018
64.380616
90.979988
96.387989
105.480224
105.711460
113.091927
118.745745
116.167647
110.453657
79.694452
67.703060
63.213005
41.459248
46.465004
29.084329
36.472510
14.336811
16.633814
11.742498
11.649947
6.800930
-12.020306
-7.195687
-7.061606
-0.290552
-0.283891
1.782033
-6.234772
-5.974059
-3.894990
3.234725
-6.740641
-1.721815
-4.409779
-0.170652
2.178669
-0.139884
1.708325
2.959795
3.135189
0.971749
0.741014
0.238978
0.505555
0.139463
-0.291093
-0.582186
0.042854
-1.680153
-3.144927
-3.125997
-3.585703
-4.068394
-2.687531
-1.930675
-4.419532
0.166060
-3.831593
-1.225890
-2.851933
0.220573
1.996870
-1.596318
9.795258
51.902959
91.508401
94.426665
110.579153
104.044127
111.737669
102.473199
109.249991
93.656457
74.506448
97.221581
117.764282
102.287355
92.603717
87.615879
75.146905
52.802381
42.322893
24.816017
14.919045
14.759716
-4.421158
2.641971
-8.848196
-6.410811
-8.400764
0.279497
10.389278
-1.684320
-5.314136
-5.083969
-9.753429
-5.999241
-4.129456
-1.135842
-2.256862
-4.191251
1.076061
2.523334
-1.247445
1.163811
0.495202
0.337273
-0.155539
0.007247
0.149920
0.152451
0.253399
-0.052655
0.958437
-0.697888
-1.526552
-1.754774
-0.121803
-5.186427
-1.271826
-7.509064
2.440465
1.221671
-4.707737
-3.499405
-8.896247
-3.874704
16.693831
58.220050
93.116904
110.846896
106.177229
112.820550
115.964531
116.411187
121.043270
108.365378
87.054106
58.438647
48.644572
36.437169
38.963350
24.182233
31.443312
9.476858
19.149536
6.916777
2.080755
-2.681074
4.352902
8.833424
-0.299433
-4.681088
-0.284208
-6.413547
-2.241863
-5.981508
-5.698448
-5.422837
1.405025
-1.719121
-0.185560
-1.436193
1.007415
5.090344
-0.121803
1.428781
0.548001
0.967312
1.920448
1.020302
-0.018715
0.065295
-0.171909
-0.849208
-1.269246
-1.716678
-2.100191
-3.171968
-4.391814
-2.423517
-4.597055
-0.900487
0.152825
5.134380
-2.490483
1.614092
-1.332312
-3.116409
-5.056891
-5.273518
17.514201
50.035507
85.579449
113.682888
116.819833
104.044127
113.478741
114.579421
107.350402
98.663499
79.375584
62.381160
50.304049
37.811459
30.201228
30.201228
15.266673
24.959600
10.210193
2.789193
-11.883387
0.320776
-4.425566
4.962569
-11.159351
4.756005
-6.187414
-14.351132
-9.849190
-1.684320
-9.102169
-3.292727
-6.419279
-5.971847
-5.515284
-6.412892
-5.838260
-0.943465
-3.661637
-3.159418
2.820981
9.508489
13.822419
9.705103
5.919020
1.475039
-1.612567
-3.717700
-6.827142
-7.198941
-7.055711
-3.776403
-7.226855
-4.942860
-0.120852
-3.150907
-1.266437
-2.581445
-2.789381
-1.579004
-7.797945
3.039488
-5.415388
1.569837
14.754867
60.609741
91.833258
107.137200
111.709259
99.192718
110.940103
114.308965
109.254259
104.044425
85.290225
73.130063
56.153359
48.597345
36.472510
36.578535
26.555784
19.205639
16.633814
4.490455
-9.884963
-5.015814
-7.270177
-0.304509
-4.772377
-4.640515
3.953553
-4.366649
3.696195
-0.253440
1.576018
-5.400490
-3.433474
1.299957
-4.379984
4.936055
-0.154792
3.012035
-3.733883
-0.870339
-0.724833
1.465130
0.763200
0.770045
-0.018397
0.130589
-0.383513
-0.401122
-1.597477
-1.634496
-0.991785
3.954271
-0.644667
-0.730623
2.945123
-1.935083
-6.705482
1.413334
-2.481667
-6.964538
-1.332312
5.216864
3.773568
-1.594272
21.296723
56.273667
91.404178
112.281916
110.342367
102.002187
109.416152
119.577029
114.202413
103.182178
71.896184
62.262452
45.135473
37.632766
27.843494
22.798658
25.198906
7.784597
15.107344
-9.469122
-2.103865
2.722274
-4.416750
-11.297262
-1.972886
-6.390502
0.288950
-5.997865
0.269414
-1.682274
-1.600411
-6.839317
-1.434640
0.205763
-6.953045
-2.428772
-2.230415
-0.933232
-3.679900
-0.691738
-1.251853
-0.472756
1.346765
-0.255820
0.022687
0.147996
-0.010150
0.162752
0.261640
-0.055192
-1.623871
-0.700582
-2.257032
-3.399798
-1.972853
-1.147877
-0.150351
-6.321339
-8.033969
-4.424677
-4.774778
1.431807
3.252474
3.394465
16.799221
59.001051
63.031196
43.999715
45.339052
46.281549
52.185115
60.691864
61.552742
55.337966
45.702547
36.189778
26.581616
31.443312
31.565660
19.280441
26.581616
14.378650
11.811912
6.950850
14.113670
2.051913
-4.975241
-4.853523
-7.039259
-6.838138
-2.406230
-6.368854
1.709928
-2.152943
1.571897
-7.074725
3.017302
2.826502
3.952444
1.104242
3.318690
0.908528
-4.649479
2.194288
3.077344
2.003836
0.727702
0.492530
0.408874
0.012361
0.211602
-0.387898
0.377424
-0.382707
-3.200344
-2.529360
-4.377960
-2.416747
-1.758766
-1.939491
-7.913392
-4.839570
2.846550
-1.238170
-1.340498
-1.446919
-1.530828
-7.104124
9.831627
64.198608
96.308909
109.886835
106.167836
100.054744
111.055649
112.644096
114.647647
103.679682
69.627867
64.739839
52.702565
40.424091
37.811459
27.606863
27.790909
17.654485
10.151626
5.214476
0.324242
5.128828
9.790463
0.311007
11.662176
-6.356654
2.441213
0.278552
-1.753903
-5.557841
7.623481
-6.830186
-3.085554
7.891972
-2.657984
-1.129702
-1.027374
-4.172988
-2.653683
0.106190
-0.577130
1.701956
0.484495
-0.839430
0.653999
0.125797
-0.230918
-0.988472
-0.347596
-2.123384
-1.616423
1.792229
-2.294277
-3.370320
-1.988068
1.899125
-3.530803
-1.393081
-4.156515
-4.402330
2.857562
-5.177021
-0.232188
5.199508
14.923174
64.771275
88.045429
109.489869
108.705762
108.268247
109.694131
119.229434
116.632318
108.365378
72.420062
60.828204
44.002375
41.539440
36.613877
41.539440
21.752567
19.186938
16.568519
11.719360
-0.319417
4.406148
6.664639
-2.586765
8.640394
-4.650659
-2.398146
5.887779
-0.263907
9.220464
-23.821831
-46.506445
-43.668327
-45.129706
-32.116431
-24.152420
-16.362529
-15.469668
-4.612869
-5.409526
-3.878468
-0.068197
-1.964740
-0.035526
0.109188
0.034073
-0.189541
-0.196470
-0.288565
-0.837507
-2.666292
-4.459391
-2.145963
-6.613533
-0.806345
-0.892301
-2.142256
-3.574349
-6.493340
-6.976031
-4.447627
-4.779337
-3.301543
-12.616023
15.500491
66.196577
91.612625
122.645804
102.300979
108.782248
123.595634
109.600410
104.408577
91.200630
67.216918
57.307985
40.081191
47.624668
45.007004
27.633155
27.817201
17.721868
12.632004
0.327078
7.614401
-6.911761
0.316364
2.636618
-8.839064
2.518840
2.441213
-1.803021
-11.845429
-1.674087
2.082526
0.234122
0.219312
-4.407009
-2.649168
1.477577
-2.226007
-2.010018
1.049293
0.896718
-1.243037
1.701956
2.085129
0.038758
-0.494181
0.103597
-0.284954
-0.588467
-0.344902
-2.551624
-1.105609
-0.711360
-3.697617
1.535274
0.795219
-7.325753
-1.274520
-0.163673
-2.804596
-5.856300
1.328799
-6.799597
-5.452633
-3.869632
12.944666
62.876451
97.518538
113.712043
118.692353
115.778139
111.869444
114.192797
109.908476
97.141993
72.988062
70.613073
46.420154
43.662588
38.887912
33.920192
11.927602
24.064957
9.384939
6.930406
2.078695
-2.681074
-9.609835
4.281906
-2.530179
-2.462815
-6.644465
-4.361577
-10.165396
-13.600125
5.172250
3.194790
-5.042940
-0.200785
-0.183974
3.632160
-2.469870
1.930186
-0.119266
-0.854171
1.764971
0.438813
0.727702
0.228677
0.230735
0.027258
-0.324941
-0.656651
-0.634743
-3.915594
-2.109322
-2.501967
-1.397315
9.465210
21.012298
26.471929
31.525952
27.755050
26.911240
23.050495
22.028790
18.562329
12.617566
13.072405
23.266980
66.431317
89.740445
115.822557
108.721452
102.535114
105.093162
119.813815
109.676333
96.482253
69.694305
60.127019
50.208956
47.624668
27.896078
25.198906
27.633155
20.148717
10.171149
10.063776
-2.103865
-6.891452
-2.050655
-13.646488
-11.055917
-4.152274
-6.187414
4.428526
-1.757997
-1.680227
3.924712
-6.766267
-4.731950
1.742577
-4.082068
-3.709740
1.346415
-2.010018
-1.723502
0.106505
-3.240924
-0.996193
0.481818
-0.533360
0.532786
0.080610
-0.230918
-0.395585
-0.654237
-0.857101
1.985452
-0.711360
-0.821837
-0.109116
-0.123072
3.961713
-0.149717
-1.401164
-4.119270
-2.987173
-12.471147
-1.867321
3.248037
1.580138
20.640147
62.497678
106.407384
116.083730
105.480224
102.384979
109.011387
105.485590
