583.684084
349.100643
-29.582397
74.862164
52.913552
26.965570
9.394352
1.652533
4.534570
0.395573
-1.137122
-1.548465
0.745192
-0.180821
0.102718
0.044802
-0.000000
-0.186892
0.399762
-0.174238
-1.222675
0.321819
-1.029668
-0.374164
-0.424425
3.731849
31.247073
77.007236
97.864523
112.290873
136.547773
167.625523
161.577452
151.126311
148.322569
151.124633
148.020091
143.741012
139.624767
143.822840
142.665712
149.682758
144.253469
125.241974
84.328200
38.206844
19.846547
12.618326
21.275243
25.348246
37.602188
27.883719
36.352184
44.740142
40.993341
38.278550
33.518655
26.616587
29.916994
29.223698
30.619575
25.908871
20.707673
20.257286
16.108623
11.747661
6.381952
2.148566
-4.207434
-7.835016
-10.617312
-13.978806
-20.318828
-24.321022
-28.733697
-27.231457
-28.678183
-32.064692
-29.139377
-31.540669
-32.410123
-30.739543
-29.085437
-29.674852
-31.300047
-29.847139
-25.051010
-25.373357
-19.701872
-23.542879
-26.124035
-16.441121
-5.643373
48.961518
102.127983
144.794382
153.136834
153.376142
147.234014
141.309461
149.434662
147.419293
135.116840
132.332943
130.080431
144.799940
131.060748
120.060381
103.694979
89.644735
80.499393
78.390721
66.307688
60.719600
47.804785
38.308540
38.053392
25.354378
22.931455
8.360054
1.093835
-10.436156
-1.210107
-10.083294
-5.416640
-7.235521
-1.060899
0.879658
-0.969856
-9.552603
-2.498772
-9.860625
-3.545328
-7.086153
-5.325006
-2.666470
-0.489354
0.358419
2.245132
2.356714
-0.666339
0.134407
-0.591846
-0.072428
0.133254
-0.278575
0.466389
-0.198810
0.285630
0.348960
-2.603536
0.454940
-0.441179
-2.587798
-0.540584
-3.163523
2.076540
0.787099
18.121773
76.397021
115.991176
123.432969
125.475710
132.946079
139.783830
130.678947
135.061572
126.308023
133.490365
128.079588
128.598282
111.025042
94.607697
70.676372
68.133215
48.621302
41.433908
36.107568
35.967480
25.968627
18.447530
8.622446
-3.512156
8.332759
-5.697903
-5.561391
-1.017504
7.497779
1.101162
6.918406
0.997767
6.253830
2.568840
0.827164
3.611513
7.202850
9.871858
6.661389
4.011038
8.532798
3.241282
2.818885
-4.425487
-3.188691
-0.757334
1.280616
2.350828
3.848549
2.292332
-1.321278
-1.542487
-3.154371
-1.990884
-7.424789
-8.129037
-5.728952
-9.517412
-7.857686
-12.273156
-10.480852
-9.537073
-10.137955
-14.225814
-11.601642
-2.828321
42.835972
68.562154
91.076266
119.782191
120.798310
112.406405
117.545319
107.767662
117.640677
104.702477
94.380269
64.872997
58.016527
45.609684
38.381439
33.226718
25.970973
25.847654
23.332978
8.474352
8.409039
8.392711
-1.280918
3.436164
-1.231603
1.044662
-3.357046
-5.398704
-5.183473
-8.971245
-6.735369
-2.777621
-6.076837
-5.726731
3.687377
-4.884810
-5.752717
1.697382
2.566647
4.893742
-4.267352
1.562054
-0.800331
-1.450438
-0.729393
-0.558502
0.044850
0.051698
0.108565
-1.430245
0.224885
0.290800
1.607154
-0.351826
0.454940
-4.247720
0.575138
1.795227
-0.593078
0.734108
-0.680197
-2.348490
-2.524803
-0.842149
32.785728
73.070926
94.290896
112.730675
117.858193
123.096803
115.423461
113.544856
116.351320
119.822734
107.197410
75.482555
63.738424
53.443056
48.527166
28.739130
38.666164
21.224494
21.080529
8.682088
8.673568
10.940187
-8.252877
-10.420357
-1.061063
3.423886
5.505877
-7.234827
-0.929268
4.852016
-2.679959
2.661377
-4.012273
2.331944
3.519850
1.939585
1.750809
-0.466868
5.732259
4.724389
0.895763
2.454304
1.158748
1.291333
0.230045
-0.497396
-0.625189
-2.167227
-2.179351
-4.305975
-3.301651
-3.122293
-7.575190
-2.212094
-7.283304
-6.917845
-8.739965
-9.415003
-7.490703
-10.800607
-11.493409
-7.452870
-13.109947
-8.318985
14.073935
63.817960
117.433635
165.713289
185.734635
181.266163
161.373087
155.095750
156.311415
128.792389
121.255009
84.565406
75.396494
53.222851
47.942419
53.121667
25.896982
23.422206
15.875380
3.581063
6.015942
-6.116140
3.481014
-13.023905
-5.829165
3.280916
-3.371532
-7.485596
-5.201409
0.911347
-4.794862
-0.968592
0.796609
-10.492321
0.694984
3.373805
-1.937454
-1.770869
-2.618640
1.321336
0.355141
-0.345203
1.804270
1.016206
0.413996
-0.228149
0.051749
0.213880
-0.098288
0.503404
-0.202160
0.843942
2.343056
0.401950
0.458818
-0.441179
1.639764
-4.055509
-3.169458
-11.581994
-6.570524
0.856891
-2.500119
-0.836565
12.236168
47.646063
90.345915
102.085128
111.871547
118.921833
112.542668
111.205665
120.780668
107.728383
92.062132
78.182488
51.110163
51.011208
45.998464
33.656138
33.656138
16.204654
21.101096
16.094419
1.318293
1.300199
1.282105
-3.420474
-3.360527
-3.293528
-1.009685
1.128304
-4.979730
-4.789800
0.992597
-0.819811
4.192044
7.027513
-0.661210
3.299860
0.622958
3.714809
-1.357611
1.188181
1.613265
-0.231200
2.425186
0.911662
0.170269
-0.025008
-0.556025
-1.811944
-0.525104
-1.642163
-2.523497
-0.346467
-1.925119
-5.546602
-3.351013
-5.755052
-6.290102
-3.126824
-3.395863
-7.790853
-8.378103
-7.378020
-4.406251
-6.435279
6.482308
46.070321
82.120051
110.307153
110.873500
107.266125
102.983693
108.424781
106.063500
105.214720
89.300940
65.184886
55.596750
53.172259
50.839832
33.290189
20.927173
20.887274
20.787526
13.329007
1.127710
-3.697459
1.103670
-10.585855
-5.823187
-7.960740
-7.710664
-13.804875
-7.227185
4.860370
19.829689
45.735743
41.978982
44.213876
40.847666
31.028282
23.065966
20.046752
8.717993
3.976955
4.172559
0.924590
1.283324
-0.626504
0.393296
0.067750
0.009835
0.051698
0.543866
-0.153016
0.237810
0.293385
-0.948564
0.401950
-2.107037
-1.399926
-1.558608
2.969874
1.976600
-4.781495
-6.592032
-5.574238
-4.237815
4.564806
4.754242
45.647420
80.488802
97.990776
120.019382
119.566745
125.084726
108.866183
118.032554
113.126652
101.872713
73.152879
58.746244
51.159641
36.247656
23.756588
26.273244
16.267646
21.183361
3.775528
6.214735
8.554285
6.055853
3.601558
-5.656356
-10.033223
-7.543580
-9.420261
-5.009406
-2.859798
4.723688
-2.591802
4.234820
0.831042
0.774174
2.024719
0.638467
2.725440
3.305839
2.803147
1.662151
1.865925
1.026623
0.433075
0.655755
0.093370
-0.631696
-0.333170
-2.141605
-1.100068
-0.829303
0.292855
-2.584115
-2.950892
-6.981313
-4.629975
-1.712927
2.984743
-2.038853
-11.911856
-6.800610
-10.630986
-7.880581
-2.777621
0.866545
41.586677
81.929296
103.533123
111.237417
116.490290
103.305182
110.758431
110.505661
107.425975
98.906495
92.191624
65.372020
60.431282
45.740246
30.759013
25.822990
15.936322
10.983971
6.010135
1.123339
1.115690
-10.853174
-3.588817
-3.512767
-7.935732
-3.360668
-5.362832
-5.171516
-6.952102
2.766871
-6.376928
-2.607415
-2.455315
-2.288731
-2.107660
0.588988
-2.905615
1.521434
-2.259923
1.869820
-0.341410
0.238218
-1.028325
-0.146680
-0.352739
-0.011380
0.159164
1.385821
0.180942
0.681076
-0.800461
-0.301565
-8.755094
-22.506360
-27.018865
-29.245569
-27.473401
-26.376502
-22.450254
-12.519972
-13.641468
-11.149858
-13.450148
-2.739905
45.874239
80.298296
101.617384
117.989584
110.155761
98.911113
106.965826
108.392037
110.586208
96.967575
75.408985
60.828535
48.527166
43.770636
33.688750
26.247859
23.618736
16.157411
3.760722
3.727409
6.116962
1.273058
-3.416947
-1.061063
-1.036491
-1.009685
-5.217142
-0.946022
-6.775871
1.002937
-0.825395
-5.807889
0.836211
-7.871519
4.634991
0.644930
0.579015
-0.440062
2.047135
1.686595
2.426295
1.456955
1.267794
0.710402
-0.059946
-0.482850
-0.930272
-0.485269
-0.640989
-0.807574
-2.209001
-3.325455
-2.122414
-6.008818
-6.686736
-5.100457
-4.292964
-5.987958
-4.984840
-5.284931
-4.095362
-4.388315
-0.974914
2.735822
38.032789
78.151577
102.011342
100.320303
113.906145
117.181401
112.520909
113.107852
108.264422
94.380269
70.178267
60.661936
43.345440
48.171808
45.696725
30.935283
23.399899
23.266058
15.768731
5.963680
-8.502570
-1.275860
-5.918845
5.650108
-5.703614
3.187767
0.983468
-5.189452
-3.027498
-2.900749
-4.573653
0.788960
0.741972
-6.757839
8.806113
-6.929553
-0.609479
1.500734
-2.218072
1.852399
0.286298
-0.264276
0.179210
0.362246
0.319379
-0.010864
0.262767
0.366448
-0.486624
-0.655885
-0.814566
-1.661888
0.410997
-0.400970
0.519563
-1.572713
5.355336
-4.489432
2.109854
-2.168651
-2.352016
2.639168
-2.655275
10.417455
46.044354
86.288817
108.394962
115.826254
119.050816
103.784278
122.775919
118.629281
115.214108
102.272998
78.334446
58.576130
56.141873
33.656138
33.753975
26.273244
18.665414
11.180631
-35.369049
-59.469135
-61.532084
-60.611863
-66.724252
-62.791957
-45.850742
-27.115236
-17.862371
-19.266158
-2.852746
-6.467118
-9.753839
-4.119109
-0.725991
-0.679080
-0.613183
3.067647
0.579015
1.480599
0.442016
-0.987353
-0.254655
0.655165
0.462687
0.743190
0.226756
-0.258411
-0.107481
-1.091997
-1.500454
-1.825552
-2.812202
-1.115394
-3.742474
-2.337645
-2.582769
-5.046993
-6.746852
-4.659742
-3.539350
-5.268259
-5.701724
-6.085173
-2.777621
4.616480
36.035132
82.310806
97.582303
102.815150
109.945648
107.961501
96.463908
117.873859
100.373287
89.300940
70.178267
60.373619
47.988297
35.899284
38.199191
30.876526
18.401670
18.296115
6.010135
1.127710
-3.711944
-8.444219
3.425815
-8.094113
-5.661764
-7.719000
-9.580733
-1.095039
-8.917781
-4.764969
-4.555717
-4.316572
-0.854788
0.688428
-0.729605
3.066040
-5.207385
-6.671329
-1.339921
-0.395782
-0.945188
1.219448
-0.575804
0.365696
0.054637
0.003450
0.063330
-0.106106
0.529314
0.245564
-0.828671
-0.980301
-1.911172
2.199906
-1.414031
-2.659021
-2.920175
-1.893602
-3.400936
-6.613539
-13.702641
-0.805291
-0.841032
4.754242
46.214468
84.260142
98.215012
94.400850
101.260982
115.058197
111.205665
102.275818
103.198145
94.514853
73.152879
60.946763
53.650602
36.317699
28.683542
33.753975
23.687662
11.202489
11.115055
3.749618
8.545764
-3.498051
-8.136052
-1.062180
-5.513908
3.353557
1.127011
1.093408
1.052050
1.005522
4.515919
-4.142850
-0.730458
-0.672379
-0.619884
3.061536
0.590647
4.382632
1.262211
2.394177
3.653528
1.508076
1.388016
-2.162012
-0.974165
1.920661
5.302120
7.323257
7.982757
7.568510
3.412741
2.498219
2.038220
1.331686
-1.542720
-0.596834
-0.646149
-3.324119
-2.136631
-5.284931
-5.735067
-6.110180
-4.579632
0.866545
37.895156
79.997462
110.430816
104.867203
101.161921
110.350455
110.982186
106.063500
105.317169
79.275068
60.027638
50.502186
40.824479
30.876526
30.905904
16.027735
20.987022
13.470667
18.208153
-8.602601
10.720945
3.481014
-1.251835
-8.060770
-7.910725
7.551807
-7.493932
0.947408
-3.013012
-1.006526
-0.961005
2.501224
-0.849730
6.628258
0.635976
1.818131
0.531073
-5.598452
-2.230029
0.342028
-0.331294
1.698136
-0.583047
0.365696
0.301958
0.011614
-0.053612
-0.563855
0.533016
-0.208862
-0.266941
-0.990879
-1.917107
-3.882094
-7.336445
-1.565660
-6.463070
-4.489432
-2.020548
-11.058611
0.873692
4.381480
-0.835448
2.876064
42.079921
90.775112
108.891617
116.213201
112.501348
108.113437
118.345574
111.108535
107.835683
91.971698
75.261845
50.961731
38.553872
36.212634
33.721363
26.120935
21.162795
6.233068
13.578706
8.605406
1.296322
-1.106856
-8.085984
-5.644485
-7.727163
-14.061902
-5.217142
-0.940437
-2.884482
1.008107
-4.404004
-0.778485
2.428183
2.235705
2.043227
-0.564039
0.586770
-1.403452
2.905390
0.363177
0.299847
1.978196
1.720681
1.133853
0.161884
-0.374247
-0.876808
-1.058653
-1.839159
-2.341719
-2.209001
-1.847397
-4.528352
-3.250983
-1.542720
-3.926187
-0.647414
-4.643070
-2.143874
-3.796431
-7.335249
-11.262683
-9.996304
0.863266
39.890456
74.087979
106.340028
98.482845
101.161921
103.733834
106.198584
137.886322
159.088913
153.417902
134.924408
112.949856
95.468226
65.746287
60.719600
55.914446
38.199191
33.099778
8.490680
8.409039
-3.686595
8.221265
-10.553777
-1.224016
-7.919061
-7.735672
-5.356854
-11.327404
-3.016634
-8.554226
-6.326913
-7.730882
2.328726
-9.614109
-2.093175
-5.613711
-4.001210
-1.535478
-1.314572
-1.119015
-0.324971
1.172993
-0.199788
-0.369384
-0.058166
-0.017631
0.196179
-0.108340
0.551523
-0.680568
0.307602
-0.314968
-0.358528
1.347345
-0.453465
0.580307
-1.741973
0.696627
-4.798184
-3.685831
-5.607617
-7.764187
0.973211
8.535750
40.274611
80.679308
102.319000
118.777933
110.275106
106.063243
122.775919
111.220653
108.264879
79.720746
75.629694
63.369282
48.856642
31.169685
26.197090
26.171705
6.300287
16.125915
-1.139247
-8.436460
-5.959057
-5.899703
-8.111018
-1.064414
-3.279423
-9.699857
-3.067848
3.124064
2.994512
4.766464
-0.827629
0.900834
-5.449068
0.776759
-3.282229
-2.997334
0.590647
-2.374126
1.254808
0.364469
-1.382928
0.655165
1.694004
0.446092
0.170404
-0.179359
-0.460355
-1.379369
-0.218755
-0.278186
-2.175658
-3.993301
-2.892541
-3.225975
-1.549963
-2.803978
0.557299
-4.634734
-7.660353
-3.784474
-4.077427
-0.923070
0.834855
2.749622
38.032789
84.638039
104.815628
111.722641
105.612080
106.015342
106.412910
118.223634
100.764224
92.103318
67.647877
62.841631
38.235640
38.308540
30.876526
23.377592
18.472040
10.962929
20.687777
3.570713
-8.519242
-6.062332
-12.971705
-3.538117
-1.199991
-9.858746
-7.477260
-15.330467
-6.943766
-2.886263
18.818473
36.274510
42.105070
34.843100
33.098813
23.327090
11.887948
5.537655
2.142744
2.530876
1.498179
2.665801
1.620241
-0.128977
-0.063224
-0.033379
-0.197471
-0.851156
1.235430
-0.214446
-0.832198
-0.994406
2.760546
1.362151
-0.453465
0.584185
-1.741973
-1.890076
-0.643339
2.287526
-0.750563
-0.800824
-8.108306
2.879766
51.913295
84.860570
98.215012
111.623220
92.465998
101.826928
120.687175
117.913209
105.624063
92.243001
60.769420
53.494943
48.574234
33.721363
33.786588
33.525688
36.072546
20.998264
6.208625
13.445319
1.287274
3.638573
3.594155
-3.335843
3.434990
1.165785
-5.193401
-2.986744
-0.905813
-0.868955
-4.392133
-2.457804
0.842674
-0.674613
-3.270359
-0.559571
-6.002362
0.515685
-0.379749
0.365762
0.297262
-1.038680
-0.447835
0.819694
0.207656
-0.233404
-1.263393
-0.467162
-2.231551
-1.800544
-3.458251
-3.293377
-2.092521
-4.202264
-2.582769
-3.926187
-4.292964
-3.336076
-0.746043
-5.293267
0.752899
-9.591753
-0.974914
4.622287
41.940821
92.588877
102.011342
111.480029
99.041509
112.743840
106.412910
108.770497
98.620363
84.565406
70.245359
55.861497
30.964661
31.023417
28.507170
33.258454
18.454447
15.905851
-1.307472
-6.134076
-3.697459
-8.435883
-5.924824
-5.793294
-7.894053
-7.702328
-3.233918
-7.202177
-10.948954
-8.564919
0.829391
-4.316572
3.902233
-8.169303
-0.725811
-6.851252
-0.605686
-5.533202
-3.050922
0.332194
-0.919838
0.689993
-0.920709
-0.567970
0.334729
-0.086030
0.207284
-0.373784
-1.293424
1.197727
-0.274760
1.051225
1.217793
-0.408789
-2.409738
-1.590344
-2.967658
-4.522810
3.532072
0.801315
-26.654719
-44.231936
-55.486020
-42.322059
-2.863324
45.879964
73.138825
86.108730
96.708427
99.540452
108.866183
106.333494
96.205550
87.670690
50.813299
58.292605
45.953805
38.628733
40.995665
31.018670
23.710638
3.790334
13.565367
6.159738
-1.125844
-1.105740
-1.086752
-3.357001
1.199388
-1.008569
-7.309929
-5.003471
-4.819476
-2.732853
-4.392133
-0.776252
-2.281491
0.778051
-1.950023
0.650099
0.581600
-4.312243
0.440723
1.729371
1.968167
1.516596
-0.144081
0.446092
0.187444
0.244923
0.452938
-1.696501
-0.612018
0.242589
-2.812202
-1.847397
-1.263872
-4.180878
-1.553585
-5.079072
-6.733802
-2.024368
-2.151117
-0.802945
-5.743403
-9.565653
-10.035454
2.753071
47.860653
78.967545
100.913237
107.264046
108.180001
106.234382
106.948726
108.770497
105.112271
89.472838
67.583143
43.180785
50.791597
31.023417
35.865192
40.979705
23.466820
18.313708
3.577613
5.981101
1.118968
1.100391
-8.252495
-5.799272
-5.673721
-7.677321
-7.460589
2.987669
0.911347
-1.002732
-2.741407
-6.010150
-4.011662
-2.263381
-3.431734
4.261668
-1.716548
-0.528553
1.235087
-0.379344
0.876291
-1.683842
0.865227
-0.122655
0.137999
-0.150552
0.210985
-0.118392
-0.902168
-0.222265
-0.274760
-1.008511
-2.762085
-5.777371
-1.449293
-0.509310
0.647515
-1.918286
2.143167
-2.189808
4.124824
4.405924
-6.300225
4.766464
46.101059
78.731430
110.878046
116.987096
114.975641
106.175361
108.866183
118.748626
113.350887
87.242610
80.504628
58.349310
48.762506
43.559388
38.516441
33.656138
33.460463
28.544571
18.538315
1.307954
1.291152
-27.287171
-59.507598
-64.735554
-76.970032
-57.572925
-45.040217
-29.340630
-18.422552
-17.578945
-7.947001
-9.148337
-5.432379
-2.133388
3.360968
1.854451
-0.499258
1.484301
2.862788
0.363177
-0.255772
2.387611
1.420803
0.262806
0.081433
-0.036670
0.086327
-1.041982
-1.028325
-1.842224
-2.822895
-4.006351
-3.731781
-6.039633
-5.650652
-1.723791
-6.759902
-5.945187
-6.330127
-3.796431
-0.872491
-9.578703
6.270041
4.633901
40.131632
84.638039
106.696873
105.095671
106.283343
106.234382
106.841563
111.272301
110.377943
74.606626
72.782513
60.373619
45.653204
35.967469
26.044964
20.967072
16.042970
15.890615
1.130988
3.556913
-8.502570
-6.050375
-3.596059
1.058867
5.522356
-7.685657
-3.241161
-7.210513
-4.962264
-1.002732
-9.878854
-5.968471
-5.585022
2.142428
1.966480
-3.090952
-1.720169
-1.513749
-2.146329
-1.793589
1.445917
0.700343
-0.878859
0.767427
0.043710
-0.038789
-0.068131
-0.121743
-0.543044
-0.227849
-1.466023
-0.326137
-3.559482
-0.417724
-1.459872
-4.892944
-0.560688
-4.539500
-0.643339
-2.203913
-5.632651
-4.279362
-2.655275
4.790907
56.032338
84.760499
104.665875
103.303305
108.048864
113.139395
120.563011
113.725257
111.025042
94.329166
75.776833
55.924690
53.391170
36.282677
31.079076
33.460463
16.236150
18.393059
11.125984
6.190292
-1.119142
6.043632
-3.413421
-3.357001
-5.502037
-5.347719
1.125719
-5.003471
-0.903579
-0.866721
2.720601
0.898249
-3.863890
-0.672379
4.669072
0.650099
1.676779
0.516978
-1.177771
2.411218
3.574788
2.334257
0.782189
0.893687
0.254198
-0.173380
-1.438897
-0.163118
-1.860544
0.755542
10.990724
17.760339
17.757814
20.809069
18.844459
11.690637
7.876748
5.849701
9.004174
-0.805474
0.752899
-0.931922
0.840319
6.547621
44.053806
82.787693
106.815822
101.086943
105.947711
108.856519
106.948726
111.162781
95.996955
87.018970
62.841631
45.566163
43.221949
28.426107
28.453128
23.556047
13.509302
6.068204
3.577613
-11.002873
8.351890
-3.639516
-5.918845
5.644301
-5.661764
-3.335318
0.976912
-5.165537
-3.002148
-2.879020
-4.507888
-5.968471
-5.551678
-3.712730
-0.718225
-4.292964
-5.036301
-3.467715
-2.110457
-2.442405
-1.482701
1.126537
0.503695
0.100532
0.041524
0.018094
0.511212
-0.670691
0.573732
-0.708779
1.515491
-0.325020
-0.370814
2.285458
-1.477504
0.591939
-2.997334
2.024719
-3.436548
0.807778
-4.036014
0.934437
-8.140568
6.679840
46.271173
95.075719
104.785220
118.646542
112.988367
104.442529
111.549246
106.655392
104.120472
84.954198
65.658810
53.806262
43.601638
35.967480
38.628733
28.572365
16.173158
11.191560
3.764424
15.889695
-3.536840
-3.480420
3.571946
-3.339370
1.196803
-3.180688
-0.969477
-0.940437
-8.689007
2.872363
-0.824279
-2.440173
0.841381
-5.015146
3.330414
-1.766657
-1.597396
3.365481
3.672231
3.082051
2.491871
0.226178
0.458986
0.270209
0.024556
-0.378450
-0.466333
0.142056
-1.052239
-1.825552
-2.822895
-1.823483
-3.731781
-5.089502
-6.702144
-6.198752
-1.879511
-3.330098
-6.308742
-2.321323
-7.378020
-9.630903
-4.609525
2.749622
44.371502
74.517723
102.810983
111.601335
97.326177
97.289111
102.346159
99.591411
117.432989
145.909368
134.539276
120.060381
93.074686
75.827331
58.237753
48.309442
33.321924
23.243751
3.574163
1.125525
3.525863
-10.767632
-5.918845
-3.501903
-7.885717
-3.328075
-9.537962
-7.193841
-4.956285
-14.086976
-0.950889
-11.031574
-7.132086
-2.230788
-2.056960
-5.517476
-0.598099
0.451303
-0.447626
-0.371757
0.268815
-0.242780
-0.179556
-0.538077
0.031690
-0.049368
0.384984
-0.126211
0.959404
-0.230083
-0.881565
-1.026142
-2.787119
-1.318822
2.536003
-2.736180
-2.991399
-0.610949
-4.831563
0.812947
-2.404910
-4.291233
-8.151321
8.546680
62.074920
95.299954
113.117622
112.244039
108.048864
110.972264
111.663772
120.780668
103.915511
80.426240
77.954551
61.005877
38.404148
38.666164
31.139482
35.862415
23.733613
16.062923
6.233068
-1.130312
1.291152
1.276935
1.248501
-5.608873
-7.727163
-3.177162
-5.157789
-9.000865
-6.734147
0.997767
-7.893232
-4.101303
-2.277965
-6.452233
-0.609832
0.644930
0.580307
0.511808
-1.170719
-0.310501
0.829136
1.069399
0.462687
0.579374
0.116106
-0.185338
-0.108745
-0.169440
-1.425431
-1.842224
-4.113730
-0.390724
-2.104478
-2.313730
-0.547520
-5.111150
-8.011758
-3.359991
-0.752365
0.699355
-5.776746
-4.406251
2.666822
12.203627
50.117251
85.028977
104.932219
116.568454
104.153502
113.210205
111.877203
99.689145
98.811118
74.893850
60.604273
50.888067
48.217686
40.863286
35.967469
20.987022
20.867324
8.507009
-1.307472
1.122246
-1.288505
3.481014
-3.574331
-1.226545
-5.649807
-7.677321
-11.588404
-9.206486
-6.910422
-12.202524
-6.276897
-7.602568
-7.121393
-0.781449
-3.389884
-1.865026
-5.057686
-1.510128
8.780310
15.620039
17.736127
11.583987
8.823037
4.922279
1.659195
-0.521580
-1.459212
-1.728539
-2.522733
-2.193759
-2.102856
-2.444988
-1.976460
-2.231679
1.536122
-1.629133
-1.780762
-3.246618
-6.258666
-8.279574
-2.390805
-4.297168
-0.846617
2.901974
42.495013
89.051469
117.477166
110.431518
108.165800
113.974812
109.314653
116.234384
103.813030
89.785766
58.235901
60.651192
40.915984
31.139482
33.460463
26.146320
13.712092
13.658737
1.320878
11.049480
-15.603573
1.269180
3.560841
-7.902401
-3.254739
-7.510201
-7.226483
-4.979730
6.833203
-0.860020
-2.581223
0.895664
-3.816408
-6.473741
-0.608715
3.043204
0.579015
3.365481
1.232599
0.360592
1.925566
1.923549
1.030945
0.090471
0.024556
-0.209252
-0.315063
-0.783201
-1.475446
-0.807574
-2.865666
-0.397047
-2.110457
-2.331666
-1.560827
1.638733
-0.658794
-0.709373
-6.404977
-2.324945
-5.801754
0.808629
-6.418607
10.392762
44.212654
87.480127
105.281993
105.209906
106.730852
108.520887
126.145970
111.819901
103.394704
89.730684
62.841631
55.702649
40.902092
40.979705
38.454338
23.377592
20.947123
18.313708
10.889282
3.550013
-1.292298
-3.661245
-8.260831
-5.799272
-7.877381
-1.162057
-9.495191
-1.088717
-4.956285
-1.003997
-6.301905
0.776940
-2.411859
-3.682837
-2.053339
-0.651207
0.513589
1.411035
-2.934220
-1.763696
-0.308533
-0.242780
-0.866902
0.307047
0.033875
0.040716
-0.222154
-0.951292
-0.179822
0.267536
-1.507570
-1.733112
-1.181298
1.388062
3.544405
1.702689
0.655269
2.024719
-0.647807
2.328242
0.881447
0.934437
-2.669380
-2.764589
8.929204
42.105275
51.902287
66.727755
61.631701
56.454082
69.239058
104.470274
88.993539
82.090261
72.797077
53.391170
50.912254
31.260295
33.525688
23.687662
26.019396
18.574629
-1.137013
3.723707
-3.522735
1.266595
-5.709773
-3.335843
-5.478296
-1.004101
-5.139983
-7.009521
2.979706
-8.312627
6.228269
-2.426068
-5.365622
-3.549319
2.021018
1.832242
0.576430
-0.434477
-1.958654
1.010509
2.470012
1.456955
-0.137380
-1.012208
-0.063473
-0.191316
-0.304198
-1.091997
-0.622882
-1.833888
-2.234009
0.340936
-2.967564
-4.180878
-5.689802
-0.601892
4.253504
-4.659742
-3.557286
0.704819
-5.818426
-7.912659
-10.100704
14.091527
50.357333
99.498184
96.553910
118.620507
106.507097
103.733834
109.739021
109.306313
113.462701
82.269293
65.372020
48.401198
38.344989
31.082174
18.524817
18.560002
15.982028
15.844909
10.920845
10.868240
-3.704702
-3.657623
-10.628626
-3.505524
-7.894053
-3.328075
-11.627554
-1.084924
0.904791
-1.001468
-4.507888
2.442575
-3.969811
-2.209060
-0.716960
-0.651207
-0.591777
-0.519701
0.382460
0.319081
-0.303475
0.662393
0.807158
0.702114
0.253088
-0.074051
0.080132
-0.718173
-0.955586
-2.764246
0.936479
0.382563
-1.994266
-2.237614
-1.477504
-0.516012
-3.015140
-4.547844
-6.247913
-0.708120
-2.408437
-7.839463
-0.849967
16.165167
54.334083
84.960642
113.762534
105.710144
117.333275
102.148825
109.426771
116.117448
110.366791
77.346718
58.122491
53.339283
41.035505
45.953805
23.802539
18.719885
21.121662
16.078671
3.760722
3.742215
8.494643
1.270473
-8.019226
10.328149
-1.030907
-1.000750
-3.064321
-13.018550
-41.472163
-56.293356
-48.433839
-42.268799
-36.009376
-26.600934
-12.334901
-10.134245
-2.653086
-2.332579
-3.602497
2.326016
1.350498
1.879832
0.444180
-0.074833
0.213418
-0.126749
-1.135350
-0.459919
-1.892623
-2.395183
-2.250680
-1.883269
-4.619702
-3.309334
-5.663702
0.523424
-5.560247
-7.294953
-2.143874
-3.850239
-7.474255
-11.493791
-8.276214
6.563949
46.180934
89.130289
102.810983
110.146382
104.043982
100.092290
107.270215
104.804926
103.694979
82.584803
75.396494
55.543801
38.454338
31.052796
23.444513
30.964661
8.555993
15.844909
13.354763
-1.304943
8.335562
-3.650380
-3.577952
-3.516388
-10.147451
-7.660649
-7.393902
0.938666
-10.818454
0.864359
-6.243554
2.439125
-7.100008
-3.658922
-3.371948
-6.720752
-1.676712
-2.451239
-1.263872
2.375758
0.261165
1.091696
0.795544
-0.466333
-0.094157
0.077731
-0.239786
-0.706303
-0.184290
0.758807
-0.899197
-0.330605
-4.435956
1.406569
-0.469102
1.724898
3.134867
-0.618767
-0.653392
-5.315554
-7.366300
2.676183
-0.848851
16.185733
56.444846
93.581384
106.900632
114.928386
110.513797
111.440008
121.183829
111.893358
98.736357
89.961816
63.000141
46.177099
43.517138
38.553872
33.623525
28.683542
26.044781
13.632060
13.498674
6.153627
6.074186
-3.455736
-1.075583
5.774754
-3.237108
5.475322
1.119257
9.115001
2.968601
4.674801
0.944777
-9.122011
-5.357277
6.513838
4.626471
3.037093
1.658271
2.364899
-0.367463
2.326016
1.900005
-0.194342
-0.132912
0.403316
0.200079
-0.570067
-0.908887
-0.166911
-3.126491
-3.512848
-0.977780
12.801930
19.633810
23.528099
24.003024
16.296161
12.899163
4.629054
2.059629
0.705911
-4.173085
-6.185203
-4.639418
6.563949
54.312506
87.279943
105.398585
107.963594
108.751173
108.968396
102.243711
99.689145
106.034309
89.644735
65.559154
55.755598
33.385394
33.448864
31.052796
23.355285
13.496424
13.444911
6.004328
10.805113
5.917225
-10.789018
-1.246777
-1.217694
-19.014702
-7.618970
-7.393902
-3.103548
-4.944328
-4.711161
-2.719678
-5.910120
-2.390130
-3.670880
0.614121
-0.649943
-0.590512
1.414485
1.207487
-0.369228
-0.883624
-2.466451
-0.496133
-0.103687
0.030597
-0.017871
-0.397666
0.696637
-0.180939
0.769912
-1.507570
-1.744983
-0.374164
0.483374
-2.475027
-0.513778
-5.419876
-3.246618
-6.258666
-5.257141
-2.426068
-4.309039
0.974503
8.590397
56.238592
85.260856
102.552872
99.176520
105.937425
111.206136
104.724006
113.954311
108.908674
85.120611
60.651192
43.474889
45.864488
40.995665
30.958263
23.549810
11.235277
11.147843
15.984183
1.304076
-3.515683
-10.613924
-14.965103
-3.332317
-5.454555
-3.156004
-5.139983
-0.931502
-2.831588
-2.708169
-0.811993
-2.404910
0.829749
-0.662327
-0.603131
-1.734921
-0.493674
-1.375242
1.992137
1.025315
0.288215
-0.192108
0.751635
-0.069248
0.014217
-0.049315
-0.311441
-0.807115
-1.088111
-0.803953
0.292855
1.090189
0.387923
-2.337645
-1.578934
-3.976202
-4.342980
-2.053339
-3.563264
2.228677
-7.484948
-4.448102
-10.152904
12.279804
54.312506
87.480127
105.281993
110.741125
102.019225
111.721268
109.958061
111.819901
110.913758
79.887231
67.647877
48.217686
38.381439
26.094292
25.946309
16.058206
28.480149
55.120207
59.566331
39.970735
29.995179
22.507624
17.398902
14.763189
5.481708
9.658319
9.363730
0.938666
0.903698
4.558412
0.821742
2.439125
0.719024
0.668758
-2.035232
-0.639827
2.700206
-0.508321
2.026606
-1.042966
0.261165
0.208714
0.789738
0.279447
0.027319
0.096239
0.090471
-0.131795
-1.360181
0.773613
-0.290396
0.392903
-1.202455
-1.336453
-2.498768
-0.522713
-1.816025
-0.614300
-2.076968
-0.709237
-2.411963
-6.049885
4.638136
18.104634
52.360823
89.471028
105.143256
110.188009
108.633544
111.089200
114.363408
112.117593
96.777069
85.120611
70.745123
48.527166
50.961731
38.703595
36.002502
18.665414
28.544571
6.220846
11.071338
13.445319
-1.112441
-3.466315
-1.076700
-3.321738
-3.247687
-3.156004
1.111502
3.090751
-8.635239
4.680912
-9.556392
-5.691064
0.832334
3.599291
1.998809
0.639760
-2.635280
0.502761
-4.343815
-0.962669
0.810628
1.026623
0.433075
0.233194
0.033313
-0.251103
-0.116332
0.147520
-1.525461
-1.900575
-1.614230
1.083289
0.385738
-0.496941
-1.578934
-2.851807
-1.890376
-4.693085
-0.753630
-5.384961
-4.173085
-7.934045
0.850153
10.379883
50.477375
93.553344
111.791106
104.045799
106.618975
107.001022
107.270215
109.306313
103.094429
86.935378
65.247264
55.543801
53.222851
40.746866
30.994039
23.556047
18.419262
13.496424
1.134266
-3.733673
1.114597
-8.369197
-10.564469
-10.350614
-1.193669
-3.335318
-5.315003
-7.152162
-10.753204
-6.576988
0.820649
-0.887665
-2.386509
-5.101542
-0.701786
-0.648678
1.583534
2.351792
-5.284679
0.983240
1.353006
2.020041
6.779337
4.728402
1.672240
-1.125420
-2.335464
-3.633382
-4.557068
-4.810840
-5.220054
-2.511745
-3.645512
-0.427776
-0.473569
-0.521596
0.660439
-0.613183
-6.269420
-3.751119
-4.083497
-2.563592
-0.847734
14.289573
56.651100
93.800801
109.636600
108.126890
110.871833
118.079735
110.099477
116.351320
103.608069
84.621370
68.133215
58.406015
46.043123
33.656138
36.002502
26.095551
16.062923
16.094419
8.630967
6.123073
-1.109090
3.612662
5.872528
-7.869022
-1.023088
-5.294301
-5.116242
3.094452
-6.675735
-4.528646
-0.811993
-7.366300
-2.260334
-0.658976
0.700505
0.634590
-2.647151
-0.433361
1.214091
0.348960
-1.317640
-1.860394
0.714970
0.244299
0.085202
-0.148478
-0.111274
-2.415925
-0.662718
-1.351171
-1.620209
-1.889247
-1.285600
-0.496941
-4.683439
0.528887
-0.665116
-2.031611
-2.161981
2.239027
-4.185042
-2.701571
-6.468622
16.039511
56.625676
92.019518
109.296525
106.123781
108.522704
105.019791
110.067581
107.216364
110.913758
82.348170
65.372020
55.967395
41.057318
31.052796
18.524817
16.042970
15.966793
8.507009
3.577613
13.225980
-3.701080
-10.756939
1.078537
-8.060770
1.037012
-7.643977
-1.124123
-5.123687
-8.832239
-2.860913
