64.400321
63.553209
80.764188
87.180655
89.176569
92.038073
93.126910
97.643015
108.899756
127.508574
124.578698
123.193083
116.860081
117.704481
116.162835
106.620812
105.244568
101.057855
97.059188
106.240309
93.608921
72.935459
49.102141
30.357021
39.569407
37.150417
31.920820
39.723674
24.909827
39.145173
39.106607
24.256216
24.014138
16.637002
9.484803
-2.002399
-6.323050
2.349413
2.312036
-5.777721
4.019812
-7.102249
-4.949374
-1.411840
0.173669
2.931324
2.703501
1.257470
1.153348
2.699065
2.333722
2.999332
2.423950
2.622414
1.187491
0.344723
-0.014388
-0.483778
-2.195736
-2.086268
-3.971418
-2.984745
-4.653957
-4.863163
-4.332694
-2.844026
-6.546566
-7.107700
-3.950850
-6.715676
-0.157141
47.302684
106.713222
144.265903
150.333905
145.250810
146.096355
142.291934
146.823936
148.211996
129.647288
128.323336
136.728862
139.645217
130.323187
109.823217
87.801964
80.538913
81.622049
68.555635
54.473554
57.339692
36.734511
26.913704
26.939312
23.906053
19.124655
4.522098
-0.269695
41.024492
60.910408
67.284616
56.609362
38.742260
41.125573
26.328639
23.068200
13.504121
6.114004
1.308902
2.549222
-1.388448
-0.131857
0.909365
-0.976375
0.651330
1.197026
-0.060355
-1.194784
-0.572374
0.466090
-0.029863
0.128150
0.234941
0.038993
-0.883891
0.064435
0.752880
-2.222732
-0.772596
2.060533
-0.950399
-1.047767
1.425667
2.916136
41.178065
96.389335
130.058746
144.370800
137.355900
148.456411
145.659567
148.667462
139.167686
139.715807
127.846265
137.934939
131.635252
118.950660
100.264620
86.305218
71.767994
70.110365
59.962496
57.531542
47.209985
37.114243
34.692554
32.140531
19.771197
26.601045
9.760581
4.920979
0.262440
4.708344
2.410819
4.394454
0.233126
-5.577538
-1.629860
0.200217
-1.449940
1.703325
2.956637
1.425667
3.586326
2.192164
1.014519
2.371002
1.938555
2.534130
1.934263
0.285667
0.512160
-0.023799
-0.373828
-0.732996
-0.383201
-3.627738
-4.001064
-4.754402
-3.127531
-1.801735
-2.005799
-5.307551
-0.132944
-8.822429
-5.528855
-4.419968
-9.294685
11.192004
60.979622
89.477659
112.353443
112.819812
122.151131
127.082261
127.869578
122.669730
113.607035
125.759340
130.933796
104.425237
88.477364
68.227618
61.531200
54.422067
31.828660
39.314401
24.464171
21.968435
24.324642
11.916709
9.431468
2.128787
-5.002054
-2.614166
-4.812922
1.970637
-2.425190
-10.735454
-10.434572
-13.961871
-7.668745
-3.782648
-10.345013
-3.349634
-7.546109
-5.596635
-6.330548
-5.861173
-1.125981
-1.841552
-0.824145
1.148258
-1.561282
-0.781415
-0.776976
-0.141732
-0.000544
0.550898
1.150764
1.081117
0.946732
-0.501658
0.750210
-2.965468
-16.495453
-29.036115
-29.828906
-35.186622
-35.634531
-32.637590
-26.535863
-20.874720
-23.923724
-8.755125
41.387777
76.759315
99.909151
120.146589
115.291363
124.757542
113.936751
122.100502
128.988079
119.420820
99.871039
76.325452
64.498171
49.824232
44.870523
39.800807
34.861457
29.864118
22.316595
10.105304
9.937867
2.675128
7.336684
-2.059550
2.530959
0.256632
-1.909264
6.471791
-5.798430
-7.492687
-7.130137
-6.786180
6.727020
0.176711
1.583184
1.452365
2.500991
6.439583
5.678542
3.220696
4.010104
2.147131
2.429479
1.083415
0.590953
0.078794
-0.541587
-1.756589
-1.394317
-1.348713
-1.693222
-3.321732
-4.575402
-6.060189
-3.844055
-9.371968
-5.825067
-5.044717
-10.730466
-2.991278
-6.235697
-10.028476
-1.947501
-2.026241
37.425594
80.509655
106.443242
113.715855
117.011967
113.370517
107.436627
115.124854
124.387229
94.684966
80.538913
66.160215
61.238473
46.828374
39.314401
26.939312
24.487426
21.905728
16.877088
2.157920
9.367495
4.535398
-0.273773
-9.556883
-4.837807
-13.611102
-2.422566
-6.523667
-8.346538
-9.965197
-3.956849
-7.320166
6.525260
-0.182696
1.290174
-1.493434
-0.142188
2.114746
-1.102359
1.609335
-0.084008
-1.279132
-1.509972
0.687182
-0.502694
-0.329848
-0.014817
0.015486
0.288337
-0.321739
0.536627
-0.514358
-1.953519
2.460473
-0.785296
1.105292
-5.330223
-5.902988
0.150993
-5.382464
-1.320821
1.812786
-3.274005
-3.431843
35.956442
74.979286
100.379312
120.966703
119.632439
119.663639
115.016152
120.369440
127.112859
107.474891
96.042753
79.009099
64.498171
54.777940
37.403633
-14.448470
-39.230021
-56.408675
-60.981141
-40.972527
-55.258595
-40.649272
-37.633451
-45.920748
-33.768366
-21.951574
-21.289242
-3.909865
-3.788105
5.972240
-1.638327
-8.462898
-3.111657
-4.424754
1.591194
2.749065
1.302857
-2.006794
1.035878
0.875690
2.050394
2.117583
2.809729
0.872350
0.313890
0.097937
-0.517516
-0.447945
-1.672901
-0.482938
-1.139771
-2.008410
-2.323598
-5.150925
-3.853738
-6.316357
-5.776926
-5.093131
-12.095629
-7.185051
-9.309073
-1.829391
-3.678127
-2.020992
20.460561
64.756071
89.824413
107.983322
112.912843
107.137131
100.665290
109.642718
102.911827
99.266385
85.355057
68.686842
61.648290
44.390604
29.358531
29.498334
26.964920
19.458548
16.844694
4.588599
6.969452
-7.447243
-5.016985
-2.595793
-13.898863
-4.698447
-4.559086
-2.333327
-2.249338
-4.091232
1.646012
-5.526792
-3.523835
-9.611222
1.286012
-0.155237
-4.986621
-2.364155
-4.028028
-3.485793
-3.658720
-0.653542
1.370817
-1.442731
0.189364
-0.009515
0.037377
-0.124885
0.842526
-0.698996
-0.910949
-1.746432
0.080751
0.092089
-0.800113
-1.889543
-4.294816
-7.167906
0.151822
2.946512
0.173669
1.831475
1.938266
-5.280713
15.265384
63.176536
98.220587
110.501578
113.619568
113.641473
114.536418
115.306914
120.533089
107.369316
85.632928
69.168383
55.042568
54.936717
32.579952
34.929018
32.517177
22.447484
7.642379
5.169053
-2.146335
0.276820
-4.473571
2.595034
-8.849923
-4.184954
2.397470
2.301357
4.247635
4.070439
-1.623510
1.948945
0.189432
0.176711
4.436308
6.574046
7.215260
3.317911
4.713236
3.171450
3.342113
3.219792
0.830289
-3.021563
-3.176411
-0.414747
3.023278
5.819063
7.810770
8.397118
8.632725
10.924072
5.991526
3.308325
5.496194
-2.189954
-0.132400
-3.862891
-6.872135
-5.829021
-3.230182
-6.816662
3.280738
3.431474
12.941260
60.890398
94.133926
101.616921
117.138740
105.009927
114.193848
115.009844
112.290027
94.684966
65.717460
63.821293
51.542086
44.053993
39.202287
17.006663
31.949912
14.495001
11.905218
7.010170
-9.934510
-7.469233
2.087169
-7.234674
-2.538051
-9.150207
-15.351362
-10.663242
-2.251962
-4.091232
-0.213961
-7.252386
-6.845710
-6.448717
-5.964579
-4.148759
1.075839
-1.236217
1.826573
-0.096514
-0.081017
-1.847151
-0.975525
-0.040237
-0.238844
-0.179178
-0.103543
0.313890
0.820158
0.789787
0.056138
0.667447
2.177146
0.093195
0.103980
2.101035
-0.971566
0.139931
-5.094283
0.160119
-1.346222
-4.714676
-6.767588
0.210450
3.994498
63.560822
90.477389
110.376858
113.370129
114.008453
119.231951
115.306914
115.032083
107.158167
88.158074
69.101099
49.872371
44.957229
39.685107
32.360241
29.951101
29.864118
12.499258
14.825677
5.113363
5.052610
-2.078600
0.267141
0.260504
0.255526
-6.178089
6.464335
0.232297
4.080565
11.240000
-1.547308
-1.460524
1.703325
-4.093416
-1.145135
-2.227766
1.190725
1.944090
0.090706
0.728852
1.108739
0.845477
1.152359
0.454815
0.018689
-0.104987
-0.861766
-1.026195
-0.910822
-2.707934
-4.603734
-3.050069
-4.308624
-5.726447
-5.295515
-5.788961
-3.855561
-9.408359
-10.027771
-7.774779
-6.758566
-3.693059
-7.484772
7.320355
62.936810
112.856152
164.424640
168.223229
173.709613
172.832476
159.870914
158.415735
140.678202
110.140015
73.824216
61.414109
39.314401
26.888096
24.510681
34.266429
24.231622
7.057673
2.162082
-0.279482
-7.491223
-7.366613
-9.556883
-11.601993
-6.904826
-4.544154
1.837457
-10.326255
-4.091232
-9.471751
-7.242703
6.424731
-6.419669
-1.608920
-1.475062
-0.138382
-0.127507
-2.997955
-3.379283
-0.761153
-1.214429
-0.503936
-1.345903
-0.428036
-0.078740
0.061405
-0.306656
-1.647633
-0.340789
-0.938007
0.678126
-0.637127
0.094578
0.105640
0.117531
-3.237457
0.141314
-3.817300
-4.058901
4.734547
-4.756093
1.954285
-3.436352
15.401335
57.553750
88.632996
108.626080
115.164250
116.986998
109.850458
125.079053
112.979494
104.213418
81.310549
69.370236
56.978355
54.566238
34.962798
25.200320
34.962798
10.154550
17.454377
7.612556
9.947717
0.277650
0.272672
0.267971
4.819724
-6.392079
-4.063193
-8.041159
-3.752028
0.221235
-1.625626
0.200494
-1.437240
-2.881665
-2.633635
3.988949
-1.035067
1.169367
1.933965
-0.670994
-0.571509
0.587353
1.605424
0.857438
0.283513
0.073453
-0.307858
-0.452922
-0.038334
-1.370703
-2.828287
-1.363744
-1.607625
-4.356765
-4.826140
-5.343656
-7.050148
-6.354618
-9.575768
-5.819338
-4.764476
-1.847764
-10.690327
-7.504138
5.483269
55.041319
90.340645
101.954893
104.658670
111.729233
98.472494
108.059702
105.414627
94.410517
85.601273
53.804219
51.542086
49.308220
21.947533
21.968435
14.564223
16.990466
4.628500
-2.721777
2.143354
-7.483893
-5.002054
2.049712
-11.650134
-15.803365
-4.549132
-14.765432
-10.229973
-6.017900
-13.124828
5.055737
32.747395
43.363900
44.686867
39.443224
30.033783
22.798406
16.167627
11.335034
6.145309
2.769457
0.851218
1.585830
0.570043
0.062428
0.048056
0.017699
-1.379312
-1.125172
-1.415093
0.069965
-0.628660
2.505209
1.918777
-3.895082
-2.106006
-4.713142
0.150993
-5.410352
-4.404046
5.159538
-1.543075
-7.055768
11.561979
55.576930
94.579410
110.751018
107.431722
116.238681
117.066620
117.534754
117.657718
107.158167
90.776829
79.009099
57.033673
39.916507
39.877940
30.038084
30.125067
27.399076
19.887727
12.413562
7.515628
7.411244
-2.080717
2.571006
2.517610
-1.955832
-4.036135
-1.828830
6.195919
-1.691244
2.042388
-4.997695
1.826135
-7.445947
-1.238270
1.428337
-2.223257
3.280631
1.025199
-0.685811
2.028027
0.579344
1.222781
1.132661
0.439903
0.117083
-0.703116
-1.107244
-0.364828
-1.771945
-0.603673
-1.993750
-6.014407
-0.947504
-3.805324
-2.180000
-6.963820
-6.318513
-5.528855
-10.061252
-9.366625
-10.143580
-12.421713
-11.136356
13.054638
65.452373
82.106373
112.974026
102.252314
100.636082
114.311211
101.600206
103.315403
106.653585
82.749014
63.821293
59.114604
36.874586
29.554255
26.939312
26.913704
12.089082
-0.282744
14.273492
-5.121506
-5.066757
-4.997077
2.041388
-7.080745
-4.668584
-6.677597
-4.409771
-6.252459
1.700116
-5.710041
-7.213655
-0.191940
1.358845
-5.896800
-8.071700
1.059191
0.963469
-1.049866
-4.978268
0.597226
-0.065249
-1.820359
-0.356954
0.168555
0.049942
-0.057151
0.020464
0.887262
0.830289
1.588124
1.331499
1.528946
5.005312
3.752555
3.153880
-4.350592
-22.958056
-35.385948
-41.909269
-47.081160
-40.971704
-37.970033
-34.437084
-11.153205
29.843324
72.103094
91.109354
95.861691
105.086715
110.311047
113.189727
108.615600
100.559805
83.602731
54.619164
52.149336
47.118493
32.423016
27.399076
32.297467
19.984835
22.251150
10.026510
0.279309
0.275437
2.624402
-6.654389
2.514940
-6.350662
-1.894447
6.419599
-1.754745
-1.684894
3.883118
-3.278514
0.187773
-2.868136
0.162054
-2.417172
0.134400
-0.924998
1.913714
2.356090
3.293144
1.588124
1.605424
0.842526
0.746406
0.036726
-0.118110
-1.107244
-1.040855
-2.690567
-2.217352
-2.045060
-3.863319
-2.646117
-2.924655
-6.359521
-7.006984
-6.402759
-5.519172
-1.595796
-4.815786
-5.196944
-10.819819
-7.542869
15.043739
61.617014
97.068000
112.725184
104.883984
101.164079
103.381663
106.338442
101.103223
99.843515
85.765417
61.414109
46.695086
44.264375
34.429758
21.989338
24.394406
14.508846
2.160001
-5.156346
-0.279754
-2.671909
-0.273773
6.670859
-4.778081
-4.678538
-6.626287
-8.501462
-6.245129
-4.066346
1.621041
3.271871
-0.189765
-7.859026
4.105666
-0.150344
1.042544
-2.274566
-2.895336
-2.492188
-1.398584
-0.595799
1.663302
-0.034527
-0.020390
-0.131939
0.008296
-0.538426
0.034568
-0.366189
0.582014
-0.560926
0.084069
-1.582887
-1.749744
0.118361
2.404799
0.142143
4.138069
-4.114124
-4.431657
-3.147735
-5.059821
-1.625626
22.992471
67.845576
86.778775
118.848681
120.687631
108.008102
124.325859
111.288184
115.032083
110.019182
90.421538
71.489283
64.435672
54.777940
39.955074
39.723674
32.423016
24.982450
22.229335
17.301120
0.277926
-35.442536
-62.858312
-77.603327
-62.527258
-54.370881
-54.759504
-42.832187
-31.627304
-26.382551
-26.893582
-6.702515
-3.062051
0.174222
-1.236153
-3.686145
-2.205218
1.177376
0.103704
0.848993
-0.556692
1.580668
0.815100
0.790334
0.149508
0.024484
-0.455090
-0.939228
-1.365269
-1.830041
-1.693222
-0.076395
-3.108166
-6.911795
-1.995844
-6.417074
-1.283461
-1.401571
-8.129252
1.263122
-1.721780
1.477457
-7.262069
-0.211786
20.716638
73.066874
96.847391
112.974026
107.534204
107.813075
113.054677
110.745764
101.004682
97.213945
75.786020
53.958681
44.222298
36.874586
29.358531
24.417661
12.112065
12.031625
14.439624
-2.719153
4.548698
-2.669284
-2.629914
-4.882602
-11.529781
-2.448812
-0.247401
-4.379908
-0.230817
1.687631
3.440341
-8.918129
-3.459132
-1.698158
-0.163122
-2.717534
-0.135391
-2.244703
-0.106029
1.485199
2.549786
-1.671232
-0.048121
-0.033168
-0.019303
0.070935
-0.153328
0.021847
-0.266704
0.048672
1.632860
-1.217605
-1.402501
-0.745079
-4.570432
-0.918648
1.278828
-3.596407
1.503091
-8.435315
6.411845
-4.825122
-10.420924
0.212385
21.227634
66.094540
99.832648
102.711329
114.118447
103.408293
111.117077
113.535169
118.245419
102.400971
81.152049
57.144311
39.877940
42.188715
22.622002
20.140208
34.895237
17.539521
12.572711
0.280139
9.918169
-2.095534
-6.757932
-2.027800
0.260227
-1.936781
-6.143575
6.397231
-1.754745
5.905136
3.847679
3.629981
3.442660
-4.369531
4.317012
2.698438
2.430113
5.288618
4.517361
0.835644
0.694145
2.607583
1.207869
0.760510
-1.827507
0.224770
3.166705
6.028920
7.645292
7.547541
9.972107
5.852675
9.087164
3.317464
2.728062
-1.170600
-2.443790
-2.672739
-4.170749
-5.887117
-9.510506
-8.533001
-10.805431
-7.552552
18.836482
69.679272
92.610539
111.081824
112.053647
105.009927
117.680272
108.059702
105.827613
94.593483
75.786020
66.539719
48.980746
34.331761
36.874586
21.926630
24.487426
24.417661
9.486302
7.016956
-2.687657
2.107978
-14.330505
-4.862693
-13.783759
-2.448812
-2.375322
-6.450368
-4.225616
-7.891448
-3.857305
-5.387523
-8.376542
-3.220228
-4.405308
-2.727488
-4.822014
0.940578
-3.766593
-1.667351
-0.075308
0.472370
-0.464566
-0.032352
0.454677
-0.004350
0.009956
-0.743691
0.347072
0.048672
0.061946
-2.482069
-0.660411
-2.416013
-1.758763
-7.150270
-1.003316
-2.354037
0.154588
-2.701279
1.732692
5.211730
-5.101238
-1.619276
25.015628
69.834115
99.256912
111.249896
116.308266
112.737417
110.886783
120.981073
117.775258
104.935689
83.847661
69.101099
52.199868
42.475435
37.403633
37.367459
29.777135
15.001302
19.790619
0.280415
-2.110351
-2.104001
-2.063784
0.264929
-6.481817
0.251655
-4.000058
8.440785
2.223933
4.024875
2.018360
-1.507091
-4.680161
4.689811
1.540468
1.417657
-3.313389
-1.943659
0.102598
2.311354
2.560798
0.565995
0.799912
0.782878
0.012721
-0.019366
-0.493821
-0.718336
-1.709007
-0.970548
-4.068027
-3.393944
-5.491000
-1.816666
-1.995844
-5.355692
-5.933384
-7.711999
-4.214729
-7.389651
-3.279954
-3.563652
-5.504802
-9.435645
22.759852
59.621843
95.321395
104.543948
101.150790
103.417777
101.594508
99.920729
98.785443
106.963324
148.828666
130.641770
126.299784
120.990356
94.210689
81.699416
71.490000
58.665064
53.649757
33.645779
14.218115
-0.276763
9.129881
-0.266432
-11.517746
-13.424057
-2.377946
-6.421048
-10.242008
-4.056392
-0.210971
-7.107145
-5.086995
-4.757146
2.651191
-0.147897
1.036301
3.033442
-2.873346
-2.433548
-2.672441
-1.114886
-0.047305
-0.602237
0.314773
0.048768
-0.069851
0.210913
0.035674
-2.092346
0.061116
-1.829267
0.824964
1.777020
2.915288
0.119743
0.131635
-1.102801
-1.183236
-1.267904
-1.377972
6.874759
-6.832661
-5.342839
23.137443
64.021965
101.789794
109.482367
109.859015
106.214254
106.388041
113.880611
116.068408
107.897189
71.837671
59.500802
54.566238
42.475435
24.958242
27.425677
17.522492
22.360224
12.511500
2.704495
5.093112
-9.249657
0.270183
-4.311224
0.258015
-1.936781
-3.982020
-1.807663
2.199905
-5.460188
0.209896
1.906229
4.965683
1.668617
5.663304
3.899477
-1.018133
-1.916601
2.736345
0.822295
1.290998
1.521020
2.639442
-0.220137
-0.537698
-0.051310
-0.513186
-0.732996
0.656148
-0.975525
-3.424358
-1.408539
-3.983672
-0.965877
-5.899104
-3.291154
-5.933384
-1.412070
-6.992487
-4.507927
-1.748027
-5.277574
-1.986871
-0.214233
30.532191
73.934652
91.992588
107.152090
107.649214
110.869490
115.836925
111.407591
109.189621
95.325348
73.613290
54.216118
46.739515
29.470373
27.016135
17.022859
19.514197
19.365800
-2.734901
-2.729651
-5.121506
-12.191720
-14.388057
-7.183364
-4.773104
-13.467222
-0.246586
-16.725780
-10.121655
-11.654326
-18.348763
-10.546446
-6.632690
-7.714603
4.051376
26.581762
30.083701
27.099690
28.730391
20.809475
14.590663
10.245256
5.585853
2.674315
0.844503
-0.028871
-0.399734
-0.419397
-0.613312
0.491241
0.614051
-1.925907
-0.683694
-0.757779
-1.803859
0.122232
1.297517
-3.658533
2.880696
-2.723828
0.180859
-3.188322
-8.684990
3.903369
21.413841
74.344624
100.062943
117.653953
116.308266
99.451225
102.407313
113.995758
101.292299
95.481099
78.778528
59.327667
52.048271
39.762240
29.951101
20.081943
15.103750
19.965413
7.590188
17.284091
0.277097
-4.478081
2.600373
0.265482
0.259398
-4.094761
2.362762
0.236445
4.166631
3.999561
-5.163364
-3.219889
3.376845
-2.805001
5.643606
0.144356
-2.146593
1.129320
0.099556
0.814285
-0.529175
0.520609
0.397798
-0.648872
0.556146
-0.058640
-0.734151
-2.294738
-0.776438
-1.946235
-0.645668
-0.078570
-3.214676
-4.537294
-3.034605
-3.342463
-1.314957
-0.147897
-0.156597
-0.168559
-3.339680
-0.196290
-9.122729
-5.776011
24.917294
76.206375
89.694720
102.856152
106.123215
110.639470
106.872233
104.485409
106.034106
95.233864
66.223466
56.424411
39.239658
34.658419
29.526294
34.429758
12.112065
24.278132
19.254502
9.413190
2.122544
-0.276763
-4.967214
-4.862693
1.995608
-6.838856
-10.855806
-0.237070
-8.181931
-5.929940
-2.018367
-8.785741
-3.429269
-10.714146
-4.332008
-0.147353
-1.286086
-1.152228
-0.997373
-0.088086
-0.072861
-0.572177
0.343353
-0.562420
-0.146981
0.008867
0.212635
-1.063707
-0.626841
-0.834285
2.265322
0.076326
-0.670994
0.098726
-2.754254
1.177376
-1.028717
-3.624019
5.554963
0.167862
-1.386439
6.992949
-3.355179
-31.234480
-18.994735
18.171772
37.630545
56.123408
68.506747
79.498283
74.397673
86.083766
77.471957
66.513454
49.535396
47.027001
39.916507
27.585284
29.922107
17.539521
17.556549
19.810041
7.597644
2.712505
-2.120934
2.651099
0.268800
-4.311224
-6.454205
4.612152
2.349413
0.233956
-1.735695
5.882768
-6.999992
-4.894151
-3.007936
3.143959
1.519109
0.143250
-1.011783
1.118641
2.713977
-0.635010
1.863995
1.969845
-0.311155
0.700862
0.117471
-0.125876
-1.004451
-0.283464
-2.661796
-2.443158
-1.825161
-2.140349
-2.462868
-3.582621
-4.958528
-3.342463
-2.478630
-5.248055
-8.301909
-4.529917
-6.487448
-1.892383
-0.206077
-0.214505
23.095378
74.542096
104.687474
103.532096
107.994244
109.052306
106.548377
105.001641
111.190303
95.325348
63.882191
54.319092
44.558910
44.138146
31.919599
24.394406
19.495647
4.646234
14.384247
4.597466
-9.924828
4.482197
-9.624662
-7.161374
-7.022105
-0.253110
-13.021192
-2.286083
5.673284
-2.110230
-3.807534
-7.049048
-6.593959
-4.669187
-5.635366
-3.906870
-2.438812
-0.118535
-3.650400
-0.837268
0.553526
-1.060137
-0.043499
0.226821
-0.014137
-0.000000
0.248074
0.027654
-0.658409
0.053373
-0.497425
-3.943052
0.088770
-1.623473
-2.781866
-3.099399
0.135506
1.422997
2.880696
-2.728337
1.759390
3.579354
1.978313
0.214045
37.054349
83.045475
102.965196
122.606929
112.662860
110.722847
118.656867
107.212019
113.768772
97.826207
76.176524
64.373174
47.164239
37.367459
32.485790
32.485790
25.079281
15.015937
10.026510
7.545452
7.455980
-2.095534
-43.792039
-68.227718
-62.060139
-64.937912
-52.227013
-44.673708
-31.095114
-29.878679
-24.887318
-23.558223
-7.773242
-5.726421
0.156524
5.101898
0.128316
2.126349
1.812459
0.814285
0.654098
0.053373
1.088573
0.693406
-0.162347
-0.003262
-0.590648
-1.323879
-0.791370
-2.455193
-0.067152
-2.140349
-1.657397
-3.621352
-3.041935
-2.284520
-6.041702
-6.559218
-4.258709
-7.485933
-0.183784
-3.583561
-1.994745
-3.926986
30.756418
82.721988
96.508865
114.093813
115.354201
97.261766
102.626973
111.738504
110.866447
82.509855
63.455904
61.472654
41.630646
39.426514
24.557191
26.964920
24.487426
11.985658
2.164163
-0.280297
2.124625
-5.051826
-9.634345
-0.264257
-9.237352
-6.802206
6.094030
-4.325159
-6.149839
-7.765572
-3.812511
-3.618401
-0.185415
-1.679785
-2.921598
-5.180276
-5.861173
-4.192634
0.778266
0.663815
3.710277
1.445466
-0.427820
0.224740
0.108208
-0.009019
-0.464807
0.025995
-0.973308
-1.283938
0.065817
-1.925907
0.089047
-2.478139
-2.761157
-3.064885
-1.035067
-2.394623
-5.243022
-1.286954
1.772739
-1.498624
3.766675
2.066416
44.586945
72.600767
104.581944
111.998213
101.752877
106.439763
118.656867
125.841730
111.575010
85.716965
71.977027
54.513313
44.697110
39.723674
27.425677
29.777135
17.505463
7.642379
5.153865
9.987114
7.463436
4.986794
0.269630
-4.306714
0.257185
-1.917731
-1.856347
2.253301
4.100816
3.953996
-5.149558
1.874191
-2.971858
-2.782453
-3.900135
1.358922
1.246791
5.056017
5.137031
0.790257
2.432758
1.431548
1.398590
1.287917
0.556146
-0.343680
-0.935224
-1.359985
-1.913607
-0.540681
-3.068992
2.714289
16.853132
25.755428
30.590522
27.282149
25.058593
24.480488
19.044164
23.394311
12.613739
13.522671
10.563215
5.388262
38.688708
78.858397
102.933811
112.424571
104.348100
106.995409
107.411991
117.540061
116.487690
97.870796
68.621239
54.164630
39.688112
34.527756
17.055253
22.072947
12.066099
9.586832
-5.196163
-2.708654
-2.692906
-0.276219
-7.293314
-4.862693
-0.258820
-8.985600
-10.819701
-2.278209
-6.127849
-9.640245
-9.206975
-5.299564
1.402544
-1.674536
-5.616000
-1.388448
-1.267713
-0.115545
0.769943
1.369930
2.987796
-1.035251
0.696048
1.453653
-0.253836
0.001936
-0.112185
-0.455474
-1.042337
-1.359870
-0.510125
-0.605377
-2.250343
0.102321
-3.802120
-4.183262
1.316205
-1.138785
1.524449
1.636580
1.780749
-4.942471
2.013020
5.808208
31.200439
80.833823
92.588880
116.944011
105.590010
109.274721
114.013972
111.964708
93.039990
83.847661
61.727817
62.028342
52.250400
37.331285
37.367459
19.984835
25.006658
12.584953
14.898854
-2.150568
0.277650
-2.091301
2.589694
2.536299
-4.216521
4.576713
-6.102157
-3.801634
-1.722995
-1.648910
3.766675
0.194687
0.181689
0.169245
-3.872523
1.353582
1.241451
-1.835427
1.771957
0.768899
1.235307
0.936606
0.360421
-0.970194
0.007743
-0.252740
-1.355628
-1.171614
-0.816256
0.439075
-3.081027
-2.895145
-0.092979
-1.901278
-2.120274
-1.228343
-3.752941
-4.053470
-2.916620
-1.650914
-3.399406
-7.078097
-7.426676
11.006233
31.130129
77.008548
97.048624
103.870068
108.569293
95.289295
102.626973
107.288835
96.932438
73.121129
58.777449
49.355002
61.531200
88.730638
96.697594
101.478717
96.606110
73.613290
58.440293
50.805069
38.193267
28.212151
27.680901
-0.263713
-2.496056
-2.427815
-2.354324
1.804163
-8.065738
-7.726841
-5.578102
-5.292234
-3.369543
-10.479774
-1.517056
-0.142188
-4.667090
-1.123357
-0.958003
0.643006
-0.671914
-0.535432
1.045079
0.197688
0.664527
-0.012700
-0.511288
0.288337
-2.126432
0.523278
0.066647
0.078538
0.091259
-3.439571
-1.839937
2.293419
-2.236786
1.441686
-2.597558
-1.308121
-3.003426
-4.949374
-1.583292
11.444896
37.420318
79.193147
101.329562
103.747655
115.240923
116.210334
114.601673
109.809233
106.735869
88.244503
64.248178
54.354536
49.776092
42.311595
32.454403
25.030866
15.059843
17.335177
12.425805
2.685807
-9.258953
-4.451023
0.266588
-13.364131
-1.964299
-1.909264
2.322716
-5.805333
2.167868
-1.657377
-5.087432
1.876861
-1.390673
-2.746376
1.487072
-1.075284
4.530643
5.031533
0.095684
2.192058
-0.510125
-1.766266
1.408439
0.611390
0.285628
0.035376
0.156069
-0.602237
-0.836164
-1.546622
-1.861811
-4.330805
-3.301821
-2.792716
-0.115273
-3.415763
-1.349078
-4.068130
-0.159587
-1.666662
-3.394429
-3.638310
-3.812511
3.537876
40.830766
75.062763
105.743738
103.870068
104.237795
95.683460
102.936712
107.394434
118.805169
92.784605
71.082263
54.061656
39.389143
41.988161
22.031142
22.114752
14.481157
9.541137
14.301181
-5.121506
-2.687657
-9.769904
-11.926945
-9.450372
-0.258276
-4.593926
-0.242779
1.800001
-6.105859
-7.717159
-14.453670
-6.932855
-6.545545
-6.061407
-5.538538
-1.367450
-3.459743
-5.090916
-5.993225
-2.228309
1.703342
10.875697
10.329354
6.523802
3.150591
-0.836395
-3.429519
-5.394363
-5.083791
-4.730943
-4.036443
-3.436591
-4.689416
-0.793763
-3.857897
-3.154622
-2.268353
-2.444229
-1.227687
0.171180
-6.293485
3.640107
3.807177
13.282356
54.971370
75.499320
111.732203
116.555493
122.006622
111.780709
121.476904
122.204340
105.996847
97.922209
78.932242
59.673937
44.783817
39.839374
37.403633
24.909827
22.425669
7.575276
5.163990
7.545452
2.675128
-2.095534
-6.709612
0.262440
6.919149
-8.375820
4.409643
8.293047
4.080565
0.215427
1.972973
-1.473224
0.179753
1.615222
0.153482
4.954160
-0.969449
3.959388
3.378284
-0.605377
1.174555
0.485901
0.341733
0.379705
0.006084
-0.073491
-0.358356
-0.930905
-0.446193
-1.080045
-0.072317
-2.962924
-2.572817
-2.866016
-4.173269
-4.608993
1.073758
-6.751782
-2.956438
-3.165479
-3.434246
-7.126510
-5.673392
5.428980
46.639849
79.132846
103.163830
108.795167
106.686502
105.252957
114.549805
105.621120
94.867932
95.508314
69.014860
56.693611
46.961661
44.348528
27.041743
26.964920
14.536534
12.066099
11.939692
2.157920
-9.934510
-7.410593
-7.256664
-11.734380
-6.956135
-4.608858
-6.545657
-10.422537
-2.178472
-2.083984
-12.672825
-1.884509
2.970397
-6.032359
-0.155781
-2.578173
-1.257214
-2.090411
-0.097873
0.628440
0.520231
0.877819
0.307977
0.637905
-0.011419
-0.102258
-0.520584
0.291007
0.774599
0.056415
-4.717130
-1.312308
-1.479165
0.985152
2.075722
-0.956749
0.137719
0.149887
0.157906
3.138896
8.214497
0.198835
0.208790
-9.164243
4.100816
30.530625
33.900106
60.623262
53.383358
57.159839
72.527795
78.774548
77.779385
73.512024
61.607607
51.846142
47.118493
27.319273
25.006658
24.982450
12.597195
10.095455
5.128551
7.493260
0.275714
-2.080717
-2.036266
0.261610
0.255526
-1.902914
-1.833063
0.232297
-5.584440
-3.485958
-3.328121
-1.468991
6.411845
4.466132
4.145525
2.541493
1.217423
2.974936
1.711205
0.750210
2.324417
0.901167
1.887969
0.566654
0.061405
-0.197909
0.153989
-0.612192
-0.448818
0.970921
-0.685038
-1.518036
-2.521507
-4.633576
-3.115234
-1.233592
-2.553287
-4.082790
-4.353998
-6.196966
-0.188134
-1.939627
-11.107580
5.422193
40.978169
81.918701
105.626375
98.312899
107.024474
104.929101
112.657341
100.807599
102.482799
78.389709
61.297018
49.167874
42.027885
34.364427
24.533936
12.123557
26.913704
16.925679
11.928201
2.139192
2.118382
2.095492
-11.914909
-4.822876
-4.708401
-6.750896
-6.545657
-6.333088
-2.181096
3.515709
-3.752785
-1.881885
-3.334703
1.294336
-0.156053
-1.362201
-0.129954
-3.085915
1.582734
-2.943559
-2.430372
0.412023
-0.039965
-0.467854
-0.010331
-0.120850
-0.830857
-0.994687
-0.703505
-0.897420
-1.698112
2.147322
0.883700
-0.778946
-0.872081
0.125827
-1.056234
-3.734465
1.537798
-4.272891
0.186667
1.924917
-3.400275
9.561136
52.561852
88.999345
109.628541
108.060013
117.579394
111.545628
114.366593
116.717396
104.110236
85.380820
59.269955
66.837910
56.923036
39.877940
34.861457
34.793896
19.926570
19.771197
12.450289
7.523084
5.037422
0.270460
9.484803
2.498922
0.254697
6.702926
4.364078
12.264479
0.222894
-25.718003
-43.294228
-42.556312
-46.057286
-35.373826
-37.811143
-28.407850
-22.590605
-17.760858
-8.647922
-3.928970
-5.369620
0.048119
0.341733
0.521919
0.004701
-0.241889
-0.601057
-1.316855
-0.880959
-3.783433
-1.957100
-3.742966
-5.107760
-7.465502
-4.221683
-6.906267
-3.804251
-2.792191
-5.751559
-6.235697
-0.188677
-10.719103
-11.150744
11.130832
43.300812
81.918701
108.462184
117.772608
109.374362
107.877845
110.856068
105.621120
111.622110
88.139664
63.699497
56.639771
51.935162
26.964920
34.462424
12.123557
21.947533
16.958072
7.037315
-9.934510
-9.886097
-7.381273
-11.902874
-13.970804
-9.169572
-2.409442
-8.588607
-4.285342
1.723007
-13.258755
1.571099
-3.538766
-8.015484
-4.522587
-5.480441
-1.349078
-1.223094
-3.979614
-4.236412
1.981578
-0.632544
-1.839724
-0.037790
0.178960
0.070751
-0.027517
-0.302146
0.309695
-1.104463
0.547307
-1.145451
2.184602
0.894379
-2.636905
-2.878506
-0.977916
-1.073167
-3.796591
0.161225
-1.316588
-1.439357
1.932926
-1.602343
9.610105
47.150490
91.556689
103.552897
115.037137
102.525404
107.454548
114.954294
105.363400
99.575854
82.949585
66.643237
64.248178
47.347224
34.929018
29.864118
22.447484
22.316595
17.369234
9.987114
5.072861
7.433612
2.624402
-2.044733
0.261334
0.253314
0.247783
-1.841530
0.230361
-7.501983
7.574054
0.201877
0.189985
-1.373739
1.588524
1.452365
1.324215
-0.948282
2.952568
1.696016
2.087674
1.685051
0.048672
1.221304
-0.311166
0.111840
-0.460418
-0.784303
-1.307172
-2.094136
-1.641912
-3.798447
-5.172923
-6.759048
-5.625730
8.069083
19.027747
30.619236
37.000362
32.034851
31.642615
29.201023
27.654616
14.394503
24.432286
63.086838
96.626782
104.083909
106.614125
118.199697
105.360908
117.714727
110.218737
89.901760
88.308514
68.555635
46.872803
34.593087
24.510681
17.120040
19.532747
14.522690
2.172487
4.597466
-5.111552
-9.886097
-14.503162
2.066359
-2.543300
-0.256917
-13.193849
-12.762207
-4.255479
-6.047220
-7.649379
-5.482813
-3.508903
-0.180249
-4.493268
-5.480441
-3.745611
-1.209970
-1.065614
-0.908134
-0.079930
-0.064433
-0.503936
0.287168
0.341374
0.062428
-0.094703
-0.324695
-0.536648
0.045630
-0.938007
-2.992406
-3.483347
-3.962600
