877.278005
588.507775
-40.682180
3.153681
92.648367
41.431857
21.237212
8.056000
1.151857
-1.876172
0.982416
-0.339870
-4.795702
0.713706
-1.939717
0.516881
2.207853
-0.131919
-0.822096
0.159172
-0.114437
-0.052418
0.162520
-0.727293
0.837086
-0.360746
-0.426970
0.197847
1.914903
1.177507
4.266329
0.307027
0.344743
-2.256220
3.315518
6.527997
32.444612
62.978644
73.003608
71.526948
77.442379
90.708155
101.401540
88.929238
97.628378
112.919363
126.465507
113.529747
98.755125
105.719715
78.308209
79.854123
69.339897
56.738352
45.237060
52.170686
42.143271
47.321985
46.708079
36.347752
30.523569
23.820415
24.516074
17.518032
20.461984
22.737933
19.210381
23.174983
19.891703
17.943717
19.947273
16.050250
11.138440
7.217704
3.348812
-0.856660
-4.209920
-7.385825
-13.031815
-14.328500
-19.360514
-20.721396
-22.452908
-21.233988
-26.736686
-24.075597
-23.160298
-21.956090
-25.504134
-29.068467
-25.221870
-28.032561
-21.826074
-13.637279
-22.676666
-26.110629
-13.799492
-6.532251
45.653107
111.442959
135.879702
157.293308
150.752440
144.974034
146.382211
149.638515
152.259142
140.373301
136.740706
136.184271
139.183324
135.282286
113.488850
101.752133
97.752493
77.841807
68.485651
55.973450
54.023583
59.165025
53.459235
46.032754
31.252352
6.582858
6.499205
-10.096215
-5.217355
-14.107928
1.583161
-9.036112
-0.562767
3.409261
-6.234047
-4.142720
-0.469839
-5.305901
-3.449580
-5.926478
-1.629228
-0.317775
-0.286582
-1.165455
-2.575605
-2.119267
-0.671567
-0.111124
-1.181257
-0.354630
-0.009748
-0.248983
1.452018
0.086020
-0.754838
0.152852
-1.788748
1.745298
-0.622156
3.142357
0.291146
0.325554
-6.044238
0.378490
1.873585
19.481380
77.297486
117.250747
132.827212
139.854200
137.415366
143.489880
140.010262
132.556996
130.838983
128.396652
141.821732
125.393529
113.277367
94.246395
79.938013
72.718898
55.652303
50.314308
45.483092
30.520829
20.376195
17.844082
12.900381
22.281053
7.718071
7.552684
-3.915205
0.603467
9.118636
-19.713044
-50.476339
-48.125725
-50.837099
-47.383491
-30.355701
-26.655424
-15.111744
-13.476518
-11.011955
-7.846507
-1.306451
1.945269
3.236427
2.626619
0.812145
0.542320
-0.463885
-1.357293
-3.408255
-5.015038
-5.168577
-7.305142
-6.417859
-9.508280
-9.772107
-8.871102
-8.637692
-11.574701
-13.606394
-4.261737
-12.989046
-15.214544
-9.795526
-12.181271
-11.203355
5.032058
37.870686
77.733351
96.109140
114.186801
113.600603
115.555022
116.195834
114.491150
111.888253
106.149987
94.926139
78.366246
68.747547
49.096806
41.550536
34.129840
26.618993
19.191213
9.174467
11.581894
9.060116
-3.071742
-3.038615
-5.330192
-7.525717
-0.619304
-5.002428
-11.224286
-6.698120
-6.458349
-4.320034
-11.292270
-7.329852
-0.443195
-0.413302
-3.137935
-5.371186
-2.632857
-3.387733
2.451680
-0.969707
1.091615
-0.662533
-0.112423
-0.077982
-0.636062
-0.075224
0.025144
0.056244
0.404768
-1.603235
1.220067
2.102781
-0.547219
-0.627384
-0.695351
-0.773774
1.499481
-2.206450
-2.351611
-2.550689
2.036106
-8.123365
4.103364
45.530776
78.639483
116.102382
120.371865
124.090446
107.029066
109.698988
115.644594
125.199392
115.156682
93.970283
84.396933
65.330134
53.051783
48.018026
28.088565
37.979988
30.314208
22.838637
12.938436
5.531335
-6.591504
3.029627
5.301547
-12.981411
-3.848845
2.741383
4.710662
4.546528
4.322211
2.324350
0.471789
2.045305
4.867110
0.377167
5.314921
2.560499
7.207609
3.690632
1.608519
4.735873
1.871017
2.274246
1.052834
0.472343
-0.370481
-0.595560
-1.569656
-4.686351
-1.187472
1.046810
14.021004
19.161400
20.232014
24.348276
18.168485
17.317141
17.470070
7.841345
17.028534
-1.963506
-5.429654
-9.280902
-4.180332
26.124075
66.979982
96.219484
101.547040
111.044885
107.294986
123.067996
102.535931
114.282685
111.545178
92.474730
66.015349
58.772832
36.546818
39.066064
24.251711
21.552059
14.141460
9.192059
4.215753
-0.668692
-15.174915
-10.176985
-12.333011
-16.734214
-11.896996
-11.485895
-11.199371
-2.598935
-12.329618
1.362375
-7.683220
-3.863314
-5.220821
-1.888218
0.987550
-5.320705
-1.457572
-3.333591
-4.634222
-0.960672
-0.813108
-2.150494
-0.490876
-1.090391
-0.565388
-0.030938
-0.194931
0.288244
0.429299
1.472734
0.720610
0.849399
1.767182
2.007913
-4.669515
1.389090
-2.052994
-0.948047
-5.141100
0.412236
-4.403072
-1.261740
0.499580
21.229099
65.531590
99.251465
106.869185
125.192248
109.483202
119.919899
118.353996
108.543090
118.173090
84.314514
74.838672
65.014225
50.801850
35.527825
33.103084
28.115677
30.461795
20.356296
12.913066
5.553220
5.476624
-1.723564
5.307018
0.626626
-3.848845
-1.575432
-1.500494
4.584826
4.382393
2.330482
5.701922
3.693028
9.491276
3.162326
1.622138
1.468817
-1.783409
4.706039
0.953658
1.384202
3.516334
2.554153
1.217735
0.452334
-0.099661
-0.479542
-1.320504
-1.595202
-2.889754
-3.002278
-3.550412
-5.669703
-4.571934
-5.045323
-7.679870
-1.469618
-2.874650
-9.810304
-10.428817
-3.492565
-7.026966
-5.723567
-9.654630
3.270773
56.642414
87.578662
107.451199
108.151324
99.811285
104.526362
102.639189
107.732815
94.103080
80.372858
68.616599
34.129840
36.616365
26.618993
16.659098
39.028929
81.222956
85.284818
77.617047
62.330037
57.204063
47.000643
39.022746
33.869268
19.532841
5.939373
1.524970
-6.667182
1.427413
-4.255556
1.293914
-3.847195
-3.578536
-3.358236
-5.754842
-6.565148
-0.308677
-2.283600
-4.571934
0.527150
-0.166361
-0.133219
-0.478830
-1.332962
-0.031842
0.000000
0.171720
0.312775
-1.670118
-1.737584
2.508396
-0.496679
-4.501507
-1.534561
-0.718006
0.301733
3.953542
0.357316
1.778526
1.919582
2.094368
-2.990321
-6.789119
13.732945
59.623417
91.346945
119.082055
111.584212
107.957734
108.904345
111.405280
115.735335
108.700735
89.321511
75.057073
57.982912
53.051783
45.570982
40.544749
30.550346
28.088565
10.537319
12.976490
10.413955
0.661696
-6.467012
-11.065954
0.627949
-1.615515
-1.568461
6.859632
-3.463131
4.365980
0.508182
0.479729
0.448630
1.937980
1.778526
6.735597
-0.836512
1.330828
2.040740
4.021063
3.272663
3.551322
1.624289
1.048592
0.452334
-0.087203
-0.815059
-0.796659
-1.564913
-3.888916
-1.887230
-2.204347
-1.751656
0.634976
-4.109159
-5.556084
-8.435831
-5.340898
-8.491432
-3.234653
-5.019723
-5.437388
-4.003017
-9.679545
7.089761
54.998037
92.206616
99.309101
108.386181
109.083025
100.160979
103.258742
109.817470
99.155434
80.295577
63.605798
51.536750
44.076557
43.950983
26.593666
19.100000
16.611455
11.604210
4.219826
-10.348620
4.142436
-12.519875
-14.685879
-7.502513
-18.487007
-2.767579
-6.860545
-2.589900
-6.404207
-6.094825
-4.062122
-8.857345
-6.754368
-7.698789
-0.369113
-4.014231
-8.195298
-0.272935
-2.807641
-0.199503
2.260631
10.947827
10.213921
6.783523
2.976776
-0.237815
-2.852455
-5.537434
-5.992318
-6.336578
-8.533193
-4.624765
-3.692439
-0.646554
0.273942
-1.887095
-0.876595
0.361286
-1.005558
-5.615801
0.452600
3.955643
4.163547
17.575045
56.024672
91.240479
117.630473
111.830807
114.666649
115.210785
118.958460
108.543090
108.168410
89.147055
77.686758
50.363062
53.051783
30.550346
18.071506
15.527064
27.925890
17.931553
15.285632
10.352273
0.659049
-1.714850
2.965232
5.148355
-1.613772
0.595526
4.770845
4.573884
4.393336
-3.176956
-17.047224
5.363272
-5.687454
1.806124
4.205561
-0.841741
0.287176
2.068096
4.008378
3.298033
1.148942
0.103225
1.344583
0.672291
0.000000
-0.740963
-0.819862
-1.129244
0.321767
-2.382707
-5.471841
-3.311558
-4.534562
-4.995492
-5.531169
-7.231795
-2.847784
-7.088367
-7.511925
-9.602876
1.194645
-14.578549
-5.978807
12.847674
56.845919
87.780457
102.110564
115.049874
115.432870
107.695202
112.479408
114.733504
95.109041
87.909682
76.041368
53.972279
41.708523
41.550536
29.183861
21.675685
26.543011
6.679381
4.211680
-5.528999
4.150582
-12.470045
-2.972362
1.656757
-9.540923
-0.596559
-4.749889
-0.556918
-4.416752
-0.509480
-9.318275
-3.809583
-1.999644
-4.725810
-7.075910
-1.562975
0.804417
-1.249777
-1.084144
-1.606580
-1.949106
-2.934212
0.249883
-0.062385
-0.108414
-0.278629
0.177853
-0.189958
0.098593
-0.348547
-2.783531
-0.507136
1.030319
2.068096
2.265057
-1.924423
-3.315409
3.014605
1.778526
1.934914
-2.845159
-1.263482
5.969692
17.641955
64.028020
97.536459
118.162136
127.097616
103.596491
65.135480
45.468807
41.498748
29.960001
25.301078
15.542153
0.683532
8.127601
13.039914
15.557243
13.141392
10.578440
5.602460
5.564162
5.503980
5.471153
0.649785
2.943767
2.882439
-3.828108
2.747516
-1.500494
0.551193
2.437807
0.504874
2.223158
-2.803685
1.934914
3.162326
4.150432
2.642567
1.318562
0.251444
0.207111
0.800337
1.127057
-0.273609
1.089713
0.273558
-0.074096
-0.295525
-1.009621
-1.129244
-1.978858
-1.825354
-4.253125
-5.635341
-3.725503
-6.046255
-5.580999
-2.659723
-5.381283
-1.719573
-6.148595
-9.706610
1.208337
-2.243576
-4.164212
3.303358
53.014238
92.206616
104.250233
104.590070
100.867489
105.390217
112.930227
120.011567
96.908181
78.066566
61.075052
53.715757
36.407725
36.477272
26.644320
21.634476
19.118242
6.711556
6.692251
-0.670641
4.162802
-5.405416
-7.618531
-7.463840
-5.072279
-9.238037
-11.037422
-8.612071
-6.350065
1.338413
-0.483486
-5.452857
-0.429548
-1.827988
-0.365864
-2.740320
1.894034
2.631856
0.600746
-2.250754
0.977566
0.773906
0.549881
-0.467466
-0.232036
0.013896
0.046319
0.078080
0.105210
-0.367717
-3.510350
-1.965657
1.045651
0.252106
0.281882
-0.822571
-3.394035
0.369226
-2.430413
-8.837822
2.118899
-1.277424
-3.152072
15.899004
68.242833
104.330438
111.874958
117.089460
113.155608
113.393316
124.319476
118.725290
103.587272
82.174534
62.539759
60.357465
48.110725
40.505613
37.943257
35.287540
32.943474
10.537319
15.361080
3.103221
7.859831
7.749573
7.607813
-1.652112
-10.497887
0.592879
6.780877
0.547222
-41.635233
-52.287614
-44.228655
-43.248990
-35.712737
-28.705083
-21.194304
-18.036404
-15.260606
-9.541975
-2.050836
-2.310808
2.086903
0.102563
1.281159
0.330774
-0.009035
-0.595677
-1.080295
-0.811350
-2.479060
0.403920
-3.575328
-1.778522
-1.998822
-4.149544
-6.653844
-0.319724
-8.002396
-4.431897
-6.178883
-6.623117
-10.536489
-4.008390
-13.435478
12.879436
45.347618
88.688530
96.220191
102.840091
114.279202
108.026233
111.005506
100.506418
97.283431
76.041368
58.772832
58.996942
44.034699
26.720302
26.517684
34.097428
19.154727
11.648842
-3.125949
-0.668692
-10.298139
-14.878530
-9.944772
-5.185116
-2.842867
-4.889591
-0.573814
-6.597571
-2.463417
1.334990
-9.243530
-2.105047
-5.058395
-13.229989
-6.976249
-3.921417
-0.300879
-0.262538
-1.853746
-2.250754
-1.284189
-2.366942
-0.086430
-0.243932
-0.017546
0.236447
0.048965
-0.212614
1.291596
-1.907760
-1.061750
0.197185
-3.828775
-4.419565
0.280559
0.309674
2.817644
3.020076
-1.028213
-2.658524
8.752471
2.241556
0.504874
19.618219
66.731803
108.732403
109.488155
108.653784
103.930315
115.936141
121.324713
104.476782
103.282305
81.694449
62.722091
52.744829
35.527825
35.493499
25.523451
30.314208
15.481795
8.072472
3.130819
5.514922
0.659049
-1.716593
5.263249
5.142883
-1.606801
0.590894
0.566412
-3.446541
4.333153
4.141663
-1.249540
0.442674
4.953741
4.520584
-0.916678
1.462684
2.341653
4.629930
-0.536762
1.400615
0.619418
0.804259
1.243105
0.545444
-0.103735
-0.317017
-1.308047
-2.663042
-2.934212
-3.014736
-3.587785
-5.755608
-5.572039
-4.169737
-5.643287
-3.836337
-9.294877
7.827825
30.148754
38.828785
48.570022
42.412807
43.925549
65.148187
102.420040
128.420434
143.708128
125.385555
117.509441
108.577950
121.107205
118.403411
97.471056
73.425949
56.241779
51.634635
34.356724
36.651138
29.211550
11.760421
21.572663
14.033303
-5.545119
-3.098846
-0.658294
-3.008500
-5.265714
-7.440637
-11.722590
-4.889591
-8.925054
-8.531302
-6.272720
-0.504931
-5.723567
-5.367777
-8.072517
-3.218533
-0.356116
4.398115
-0.293081
-3.055147
0.581919
-0.181307
-0.680602
-0.114373
-1.896864
-0.225863
0.029096
0.175077
-0.331797
0.084035
-0.717511
-1.979413
-1.099078
-2.031179
0.230270
0.258061
1.327762
1.468817
-2.164975
-2.343316
-1.042155
0.428117
-4.586534
7.607430
-3.176956
33.190690
68.737346
104.934902
114.143008
112.817187
125.073757
111.904576
114.806666
109.849526
93.786208
82.174534
62.782868
60.590956
37.979988
35.733784
30.520829
30.343726
15.481795
10.465357
10.383114
0.663019
-1.732278
0.647138
0.633905
0.621332
-5.975598
0.584939
2.630992
-1.441241
0.524063
0.500242
-1.247798
-1.171117
-1.085723
1.772393
-0.913193
1.465751
1.315496
3.783154
0.205126
1.984647
0.130354
0.100578
-0.172531
0.251673
-0.100962
-0.859517
-0.322232
0.260152
-2.503975
-0.159212
-0.861292
-1.002833
-2.892722
-7.044176
-0.291131
-0.321674
-9.294877
-4.447366
-3.293758
-5.128006
-5.545672
-5.816381
-7.915432
14.904202
63.981620
99.856468
100.522878
101.070946
101.606832
111.577769
115.987014
93.828727
87.740950
63.484297
51.292036
38.880388
29.045418
26.694975
16.659098
16.690860
11.726947
1.783410
21.325412
45.546337
64.311320
70.337285
55.018991
44.904479
39.221020
31.643772
24.282966
11.424028
-0.530275
-2.342956
2.981576
1.180953
4.144048
-4.563384
-2.906889
-0.321674
-0.289182
-1.165455
-0.215099
-2.746170
-0.668556
1.495359
-0.634035
0.111249
-0.036138
-0.248983
0.254513
0.089329
-0.725806
-0.397343
0.831001
-2.050836
-1.480644
-0.697094
1.336961
-2.007372
-2.194008
-6.430524
0.398341
-5.839717
-8.032474
-6.690596
0.511491
23.849932
68.984603
102.847857
112.377767
104.357191
120.292126
124.007218
122.187795
119.436220
86.774552
75.129873
57.926944
48.110725
38.126912
28.197015
25.572867
23.039367
17.949047
12.938436
10.424235
-6.558743
-4.105988
-4.056218
-8.562530
2.864040
-1.592859
-1.549291
4.688778
4.513701
8.111165
-1.308793
5.607415
3.632845
0.408928
-0.991616
1.579208
0.313644
-3.725954
-3.242297
0.922994
0.165424
2.473524
0.444632
-0.160332
-0.066224
-0.092815
-0.809743
-0.337289
-0.843589
-1.570114
-1.343294
-2.958191
-1.026926
-5.601677
-5.194814
-4.634163
-2.691962
-4.223064
-4.509242
-1.867137
1.148434
-5.568876
-5.870523
-4.217944
24.521076
68.015344
106.013725
109.846990
117.291106
110.809023
102.226154
109.277561
103.621297
90.110049
70.819976
63.666548
48.957062
41.550536
26.618993
24.113917
26.720302
11.682315
14.073862
-0.675840
-3.098846
4.154655
-7.757753
-5.281833
-16.459319
-7.262742
1.550642
-6.736793
5.411715
-6.234047
-5.986541
1.249414
-5.298166
-3.433460
-1.776792
-8.061673
-2.643603
-1.331088
-2.052554
1.340080
-0.804074
1.409234
0.278979
0.456197
0.236245
-0.016120
0.029115
0.060876
-4.780004
-12.651407
-16.771124
-20.021914
-19.921526
-21.046655
-20.687017
-25.101604
-22.814207
-11.056441
-10.402132
-11.256593
-12.148204
-11.367867
-8.464205
-6.923468
25.761031
81.254342
105.297580
121.382504
104.698227
116.022921
115.052153
115.038833
105.101146
96.519647
79.938013
70.370795
57.759039
45.439147
32.975396
22.950153
27.980115
10.537319
7.993716
0.668313
-1.744477
5.432855
0.642507
9.807417
-3.877877
0.600158
-3.641472
2.621793
0.541929
-10.820137
4.070538
3.884518
-1.151947
-2.558984
-0.989873
1.573076
3.693648
2.254115
0.237549
1.624932
3.133131
-0.336348
0.441565
0.732429
0.577309
-0.332219
-0.495011
-1.907082
-1.993214
-2.591178
-2.513958
-1.574341
-5.038546
-4.696510
-1.261823
-3.565627
-5.098589
-8.091312
-7.262773
-7.748619
-10.002995
-3.868688
-4.072868
5.070667
32.466293
84.149491
102.639302
109.008464
110.617315
101.712452
109.350354
104.394588
111.113251
80.295577
68.223756
61.366997
41.550536
34.065016
31.522805
26.543011
16.738502
16.595574
9.121689
1.766295
1.756026
-3.056684
-5.357058
-5.260340
-7.401964
-5.023921
-9.126978
-4.685411
-2.526658
-8.147645
1.314452
-2.189369
5.999028
-6.431289
-1.758723
3.455518
5.433895
-3.395467
-2.020315
-2.498259
0.451843
-1.144487
-0.105925
1.238526
0.248465
0.016293
0.532759
0.062861
-0.917307
-0.775576
1.263836
0.837134
1.734355
-0.623899
-3.609518
0.293131
-3.184365
-0.918421
1.735596
-2.500920
-4.330998
-2.928109
2.296752
2.385678
35.331793
79.520101
98.786927
122.059106
122.149610
120.548339
122.182539
81.759529
44.296576
22.794030
-1.795016
-9.216363
-11.747635
-24.062542
-14.206592
-19.132493
-6.722548
3.146151
0.672945
-1.753191
-6.571848
-4.093546
2.977498
2.922302
2.854841
2.778180
11.111833
-3.537786
-5.366244
2.391811
-4.874830
-2.923961
-2.720735
-1.061325
-2.330874
0.338788
3.662146
5.188059
1.070182
0.193215
-0.421742
1.012163
0.089329
-0.148132
-0.132719
-0.014946
-0.737024
-0.928146
-1.276201
-1.647459
-2.564439
-3.089442
-3.463002
-4.733883
-3.294918
-4.745221
-8.745087
-9.552590
-5.936574
-0.410703
-8.471159
-2.195392
-7.723604
1.360663
40.671452
76.973186
113.552430
123.510130
102.150763
109.661787
107.117925
124.105605
106.666280
85.284818
70.887811
53.818366
46.651831
26.669648
21.613872
29.266927
14.236097
9.200856
6.672946
1.776564
-5.512880
-12.644451
-7.703611
-7.541186
3.885825
-4.991682
1.538662
-8.773611
-8.470724
-8.076972
-2.300795
-3.879434
-6.835137
-1.894241
-3.100323
-0.343119
-2.568379
-6.431556
-1.108236
2.026980
-2.003248
-1.101501
-0.843589
-0.558810
0.085576
-0.016590
0.035070
0.067493
0.097269
1.039519
-1.572526
-0.493194
-1.343778
-0.630870
0.269310
-0.784230
-2.052994
-2.235482
1.757061
-2.563132
-4.357207
3.911874
-6.717466
-1.359333
47.340332
77.771683
108.131883
115.295967
107.029066
105.043059
119.845143
120.409173
114.588288
101.534164
77.385938
55.384486
45.570982
30.638898
30.520829
38.016719
32.751942
20.356296
10.434516
7.970090
7.844080
-1.720079
-1.686967
0.631258
-3.857140
0.598173
11.099148
0.559133
4.458989
4.245614
-1.293109
5.505032
-2.720735
10.549001
7.065401
7.559824
-4.111089
-18.877452
-25.119745
-20.585340
-14.844750
-9.455429
-6.166002
-3.024973
-0.795555
0.180176
0.133499
-0.083180
0.285825
-2.690839
-0.170260
-3.787106
-1.048006
-0.250841
1.747399
-2.525393
-2.772559
-2.976740
-3.180921
-4.880501
-11.803291
-7.370237
-7.743797
3.246333
34.867780
71.098016
105.802761
117.104908
106.506052
111.844621
107.657834
100.506418
101.688847
90.370232
76.186485
61.308608
46.607611
31.703107
26.669648
31.673057
14.236097
14.154979
4.244265
9.068912
-0.666742
-10.237562
1.704680
-0.633600
-9.621693
-13.870820
-2.692292
-12.848292
-10.377170
-8.066876
-2.279714
-2.165277
-3.621521
-6.289942
-1.734631
-1.578032
-1.445526
-2.278227
-1.945090
1.258616
2.822947
-1.096128
-0.102026
0.171153
0.073596
-0.008714
0.165587
0.563529
1.173462
-0.341576
-1.598735
-3.937098
-1.356220
1.131511
-0.712778
-0.780745
-0.859168
0.355331
-1.002072
-5.535192
-6.018849
-1.253026
-6.753292
2.401010
49.411880
80.181194
114.327950
117.851757
106.796899
109.815072
118.112211
127.466097
105.309267
86.944199
57.647103
65.203770
43.160359
40.466477
47.878978
27.980115
27.736102
17.949047
0.672945
17.581669
0.661034
-4.081103
-4.010596
-1.643398
0.612069
0.596850
-5.693854
0.557810
-7.227993
2.379545
-1.284395
-1.212943
5.142755
3.315518
3.047432
1.539345
-4.102132
2.199403
0.226300
0.873931
3.485667
1.860736
0.395569
1.192068
0.085860
-0.150449
-0.587826
-2.096072
-0.109174
-2.690839
-1.402399
-4.505053
-3.463002
-3.866850
-10.288623
-3.619769
2.081401
-12.156695
-5.976959
-10.875521
-8.583278
-2.210450
24.860007
57.901728
101.751938
135.190554
163.071165
166.513778
152.099206
144.128868
138.266210
138.638042
113.764092
87.740950
70.955647
56.402777
51.536750
26.644320
26.644320
19.227698
19.136485
9.218448
4.244265
9.086505
-10.328428
1.730353
-12.345469
-5.222728
-5.120638
-9.308710
9.941684
-4.637052
-2.493532
8.892842
-5.847319
-2.153231
-9.943719
-0.404854
2.321719
-0.338570
1.930693
-2.262108
2.316548
-1.638819
2.822947
2.676873
0.255017
0.643486
0.075307
-0.020737
0.425281
0.070801
-0.263153
-0.345061
-1.003686
-1.860822
-2.901945
-0.641326
0.271295
3.575514
-3.262991
0.357316
-5.150057
-2.583869
-4.429281
-6.475637
-6.744336
2.407143
49.715766
90.601690
110.492234
117.982268
109.601690
115.331678
129.459979
120.771851
103.688928
79.627574
70.098831
57.759039
42.911117
32.911552
30.373243
22.905547
20.455789
12.938436
0.674930
3.097088
5.471153
0.651109
-15.620710
-6.218029
2.833376
-12.306873
-3.591703
-3.479721
8.255090
2.367279
-1.279167
3.807922
3.539836
1.827589
-3.597153
3.937791
1.389090
1.208171
1.865663
-0.489708
2.892121
1.362476
1.534854
0.582793
0.215641
-0.247506
-0.858178
-1.557198
-0.524003
-3.814164
-3.313718
-2.374507
-1.072098
-3.047412
-5.381678
-5.979642
-8.934077
-3.030472
-3.197040
-6.431289
-6.976485
-10.906970
-4.142720
-0.520527
50.665936
81.710577
101.321631
101.957343
97.992546
102.979897
113.155636
107.627195
84.792790
72.934570
66.141574
51.243093
38.991794
31.733157
26.720302
11.771579
9.227244
-5.598851
9.156874
-3.107880
-10.298139
-10.136600
-9.975060
-9.813521
-18.565176
-11.473438
22.617280
48.295692
52.004443
55.736332
44.142198
34.847261
32.498007
19.900970
17.008491
14.287355
8.555778
0.706860
0.602457
-0.891407
-0.725774
-0.122821
-0.090329
0.756476
-0.019495
0.045996
0.350154
0.346506
0.481429
1.110644
0.778872
-0.510621
1.843778
5.658551
0.277912
-1.932718
2.768403
4.331570
0.386430
3.430413
3.747740
5.678295
-1.322735
11.845233
52.251471
88.971762
116.832978
116.320820
101.357689
110.743741
109.494036
118.014360
107.955480
81.854477
72.366918
55.384486
40.505613
40.505613
33.135006
27.898777
27.790327
15.466706
3.109354
3.087889
-4.135020
0.649124
2.937634
0.622656
0.610084
2.744450
-1.514436
-3.475574
2.453139
0.508844
4.004884
0.456570
5.048248
-2.451150
0.358639
1.517880
0.297101
1.195905
0.221006
2.173661
1.756255
1.362476
-0.209128
0.849878
0.052129
-0.460931
-0.672906
-0.714633
-2.217451
-2.271648
-3.351091
-2.405445
2.271504
-0.254090
-3.364529
-3.689380
-5.260128
-4.346817
-4.602057
1.109069
-5.383246
-3.976151
-2.324887
10.883246
57.049425
82.367264
106.389902
111.284464
100.445007
106.254071
108.521688
103.116812
97.095806
85.612836
61.308608
51.585693
41.590032
43.867267
26.644320
16.722622
9.218448
14.114420
9.104097
6.621468
8.989746
-3.035604
-7.680408
-5.206609
-7.332353
-7.108051
-6.868280
-4.599440
-10.215222
-2.376083
1.275087
-2.117093
-6.673598
-1.830999
-5.593303
-2.708081
-4.654355
-3.117023
-1.859119
-1.552848
-0.154014
-0.119572
-0.400531
0.342148
0.093683
0.120365
0.046980
0.080065
-1.486799
-6.930632
-14.718668
-23.114668
-24.516568
-24.676987
-26.990454
-23.372715
-24.284561
-15.534648
-12.273279
-5.678498
-9.457295
-1.265225
0.503550
15.700017
59.550617
93.083592
119.623337
118.112780
106.062373
106.378352
128.553689
109.196308
96.802973
91.873586
75.202674
52.744829
53.102941
20.575181
40.505613
25.424619
25.325787
17.914058
7.985841
12.748165
5.460210
0.647138
7.592062
-3.906910
-6.028016
-5.857659
-3.591703
-1.456926
2.462339
-6.833902
7.422385
2.094368
3.474182
-5.257536
0.357316
-0.853940
0.291808
-1.600921
-2.109805
2.744843
0.143588
1.307347
0.352639
0.339211
0.047253
-0.548134
-0.979333
-1.744062
-1.438626
-0.148165
-4.104933
-3.998885
-3.604349
-4.995492
-2.401810
-3.774460
-5.361090
-1.713550
-10.360094
-9.676972
-8.757684
-5.769974
-11.544198
9.060210
59.246176
94.808002
119.095787
102.840091
102.798654
108.246919
103.465259
108.260917
97.095806
73.355752
56.188113
41.590032
39.103199
26.694975
24.159848
21.778706
14.182018
9.218448
-5.593477
-5.555865
-0.664793
4.085411
-2.984408
-5.195862
-9.571212
-7.100316
-4.760635
-6.589836
1.408586
-9.779206
-5.785443
-5.429654
5.743938
5.330515
-5.593303
-2.745694
-0.300879
-0.261888
-1.044995
-0.858281
-1.268070
-0.554118
1.152306
0.514789
0.041077
0.017204
0.226915
-0.207385
0.891798
-2.918408
-2.908505
2.370550
-1.426727
-2.522594
-0.749376
-1.953455
0.340773
1.698799
1.806124
6.538278
3.764153
2.229290
6.009069
13.855405
56.432618
101.425997
115.763575
109.891504
115.036541
117.995681
116.237036
118.606802
105.517388
84.644190
70.166822
55.384486
45.219422
40.427341
28.034340
-21.525444
-43.729481
-60.642905
-60.167274
-57.163198
-58.918744
-44.035482
-38.326702
-39.978804
-19.259607
-14.343240
0.569058
-3.450689
-9.066357
-1.331449
-4.743786
5.363272
-1.104893
-2.422118
-0.923649
1.493349
-2.869860
5.764177
1.756240
2.126407
-0.379916
1.307347
0.866314
0.441033
0.021885
-0.138530
-0.928852
-0.430646
-1.020904
0.403920
-0.834189
-3.230789
-2.784438
-4.008197
-1.331088
-3.758991
-4.099311
-1.704516
-7.586671
-6.572636
-3.798836
-2.249599
-7.875048
10.991402
59.246176
96.660858
104.480366
102.840091
110.003557
113.225419
101.199767
112.991687
93.009266
68.616599
58.996942
54.126192
36.546818
34.129840
16.770264
16.674979
11.715789
21.407829
1.773141
-0.667392
-0.660244
-3.023558
-2.969351
-7.502513
-5.066906
-2.746499
-2.659165
-6.589836
-0.533524
3.185236
-0.483486
-2.108058
2.651648
-1.809919
-0.357416
-2.691962
-0.298929
-2.138525
-4.223122
-3.537955
0.397074
-1.847607
-1.594571
0.131787
-0.063242
0.472343
-0.874824
0.380237
-0.294522
1.187240
-1.082488
-2.695943
0.227623
-3.493082
3.370749
-3.086082
-7.103296
-2.301842
-2.438708
0.423485
-1.202487
5.741300
-6.824945
23.436691
64.338459
95.028361
118.162136
110.254182
124.276262
117.872383
113.994081
108.760829
93.418058
76.408273
72.014939
50.363062
42.911117
37.906526
33.007318
35.459172
20.415992
8.033094
7.962214
7.899209
0.655741
-1.697423
-3.973269
-3.865435
-1.599830
2.735250
-1.493523
4.524643
2.419409
-1.326221
0.475098
3.687557
4.961617
4.559962
5.428004
3.803906
3.386500
2.057153
-0.548961
0.172703
-6.180853
-8.044951
-6.747614
-2.734876
0.112055
3.025484
3.949671
5.458851
7.622864
3.795543
3.168842
2.104198
-0.237194
3.571269
-1.349157
-6.178963
-4.168922
-4.424162
-6.188980
-0.428899
-5.514734
-5.824116
-6.048418
16.833683
71.880086
93.685301
106.977043
105.491709
99.231651
95.116124
108.953616
106.046728
90.456960
63.727299
63.909550
49.050225
39.177469
26.720302
19.209455
21.696289
14.195538
4.264631
9.104097
1.761160
-5.469894
-5.400043
-12.258266
-5.168996
-11.697674
-9.167363
-4.739142
-6.574367
-10.190306
1.331567
-2.213461
-2.099024
-5.019723
-4.602057
-2.949874
5.500842
1.837009
-0.251491
-0.215749
-0.831177
-0.144916
0.299517
-0.355358
-0.354630
0.023961
-0.062738
0.057568
0.088667
-0.746543
-0.937327
-1.775644
2.465057
-1.476497
1.208171
-1.816589
-1.999077
-0.914935
-0.972446
1.833722
-4.219611
2.149563
-1.286138
-1.336677
21.717124
60.861021
102.136927
107.836327
106.332564
104.152864
118.858763
121.694605
125.450796
108.274875
76.934708
77.536348
54.955980
47.878978
45.439147
22.994760
25.474035
22.860940
3.121620
3.106288
-1.753191
-1.730535
0.647138
2.928435
-6.119746
-10.429719
-3.682947
2.624859
-7.398169
-1.378503
-1.317507
-4.665160
-2.758063
1.907316
-2.368201
0.344743
1.465751
-2.791233
1.128444
-0.535019
2.631760
0.133001
0.099254
0.306642
0.144122
-0.080770
-0.456338
-0.569557
-0.827469
-2.039435
-2.503861
-4.965285
-2.567870
-5.512762
-3.194369
-4.613970
-6.266166
-5.482245
-9.982113
-13.558549
-9.899261
-14.011822
-11.203355
-7.945721
18.808855
66.230327
92.003539
100.853908
112.961518
129.002446
167.349853
176.020640
186.263508
176.835269
138.177432
118.790877
89.006444
66.457134
46.651831
36.616365
31.432654
14.195538
11.637684
-5.571985
1.759449
-10.288043
1.713237
-2.951282
-5.174370
-2.821787
-4.857352
-10.925304
-8.521205
-4.368393
-5.955603
-9.131411
-3.712865
-1.933391
-8.758178
-5.451956
-1.481664
-3.488282
-2.063300
-1.762402
-1.466877
-1.670663
0.704662
-0.072133
-0.615869
-0.085080
-0.262088
0.700927
-0.572350
-0.310207
-2.579026
2.110656
-1.289861
0.235564
0.262032
1.336961
-3.151604
0.348714
-3.675779
-2.496772
-2.720735
-1.221657
2.263021
4.229201
29.568559
74.932993
104.693116
110.104643
117.345674
115.899624
121.554028
119.804709
123.667365
98.008813
79.239526
55.170233
52.693670
37.833063
32.975396
27.898777
25.474035
22.905547
5.569633
3.097088
7.899209
-1.721821
-4.035481
-3.956679
11.834863
-1.591116
-16.439084
0.564426
-5.366244
8.080324
-1.312279
5.583788
-1.155433
-2.575574
3.107615
2.855942
0.314967
-0.737177
1.986028
0.200494
3.196555
0.610218
0.809731
0.279045
-0.301401
-0.080770
-0.174668
-1.872720
-0.816723
-3.453364
-1.879496
-3.587785
-4.160834
-5.512762
-6.992634
-5.655745
-2.675842
-8.032035
-4.455100
-4.756748
-9.884441
-5.568876
-4.056749
-7.996202
30.413599
74.499069
96.319747
116.597411
114.577812
106.922798
106.793980
118.954714
106.769539
90.630415
71.159152
64.091802
56.724772
36.755458
26.568338
21.758102
21.655080
16.579693
6.717990
-5.582731
-10.378909
-7.842833
-10.076022
-12.220893
-2.879005
-13.856001
-15.514369
-2.635073
5.437454
33.905044
43.141164
39.444378
33.819463
32.834847
21.946810
23.878662
15.914294
11.169340
6.968672
1.311568
-0.173509
-1.155233
-1.716357
0.195114
-0.180691
-0.004549
-0.174193
-0.589697
-0.584792
0.564222
1.263836
-1.140552
0.206449
1.947730
-2.575011
-1.824884
-2.011519
0.350037
-3.669227
3.320990
1.996242
2.158763
-8.407399
2.364213
29.384904
74.843360
102.610880
109.981345
106.912982
122.419655
110.041134
122.187795
101.655812
95.669670
72.155731
64.698315
55.009543
42.911117
35.459172
30.343726
22.860940
20.396093
15.330901
3.094022
5.465681
0.653094
-6.342521
0.629273
7.347918
-5.962494
2.701520
-7.568345
4.464461
-1.354104
7.689673
0.466496
-1.153690
-4.042702
-3.669227
4.079552
0.310997
5.302222
1.947730
1.635875
2.549517
1.543614
-0.247468
0.716678
0.390652
-0.116018
-0.822201
-0.607169
-1.245262
0.350863
-0.755889
-1.574341
-0.218348
-3.816369
-4.240410
-4.674547
-3.913682
-2.939128
-5.845708
-7.785992
-0.439296
-5.599814
-0.495183
-11.766487
26.837139
81.053890
97.075620
114.676336
104.053869
106.702111
114.145951
114.282685
99.636304
90.370232
71.023482
46.740270
41.906006
24.228745
19.245940
16.754383
11.771579
11.648842
-0.676490
-5.566612
-7.958851
-15.085999
-12.420214
-5.260340
-0.619304
-11.598014
-0.584862
