681.356017
829.246544
33.127055
269.570568
221.108867
199.878062
137.652459
109.748691
73.208134
51.139883
31.214369
31.214369
16.471952
13.920347
1.874079
4.207102
-0.488722
8.619493
3.966450
14.547507
13.927770
7.463553
12.671987
4.910712
14.420460
17.360394
9.100346
14.500035
15.703090
16.025371
13.495887
11.932256
10.456455
6.742075
3.811225
0.228593
-3.194540
-5.641173
-8.987377
-9.599410
-10.632575
-16.429061
-14.113525
-19.602844
-17.753101
-20.476841
-18.601833
-17.409408
-17.594905
-14.581768
-18.284644
-16.231968
-10.580234
-11.073613
-14.468183
-16.401700
12.887774
86.012864
123.542396
142.592442
138.164639
145.480177
145.613445
142.387853
139.252443
138.723956
141.021661
134.759014
133.590326
128.126398
115.745691
98.112253
88.522633
72.506666
61.868450
53.147101
49.882702
59.868750
37.185508
39.211872
34.674403
19.707314
14.921589
-1.850566
-4.087637
0.472821
4.803811
-5.875298
-1.609993
6.275728
-3.369993
-3.197926
-3.055236
0.336030
-1.162156
-5.164413
0.264165
-2.043819
1.221851
-1.565389
-1.321977
-0.486699
-0.388619
0.079795
0.798592
-0.107333
0.000991
0.247880
-0.732875
-0.401528
0.816496
0.992687
1.181770
-2.507203
-1.056194
3.649859
0.850821
2.122889
-1.565378
-7.185916
-3.272221
18.861374
72.682205
108.729127
122.958069
127.627363
136.861865
141.354400
143.663404
129.109166
138.439978
134.241843
138.688233
121.761223
100.633329
104.606157
71.165414
46.716531
-8.046192
-22.725571
-22.858340
-30.508486
-32.213568
-29.833779
-22.437906
-10.076128
-17.029064
-9.792863
-11.642686
-4.849899
-4.690537
-16.865719
-0.410567
-0.394835
-0.371997
6.307612
5.861619
3.952688
3.657911
2.058429
2.867373
3.385904
4.324903
2.899088
2.600504
2.451179
1.478192
0.561339
-0.531537
-2.101966
-3.374209
-4.201670
-3.312837
-5.134177
-3.884142
-3.741262
-5.024939
-8.350769
-9.072441
-8.624992
-5.729861
-6.246671
-6.662367
-1.147351
-9.017728
2.037366
30.405198
76.574434
100.320765
108.106279
124.591667
132.962704
130.807124
119.220254
117.021805
106.175123
122.428356
111.342452
90.967056
78.895172
59.641545
45.074807
42.639959
45.032082
32.730283
20.246713
17.679363
20.015542
15.009020
-1.891279
-4.238720
-4.171572
-6.333283
-1.758038
-3.877800
-3.760291
-7.626620
-7.377732
4.103472
-4.926614
-1.330557
-5.946630
-1.156604
-3.742395
-4.693304
0.238393
-1.779423
-1.531815
0.152155
-0.477446
-1.373956
-0.642103
0.298359
0.346559
-0.002030
-0.024867
0.696745
-0.074602
-0.098455
-1.280203
1.889251
-0.957266
0.693542
-2.188563
-0.231420
-2.645399
-0.276587
-3.065051
-0.319725
-1.978544
-2.112387
-0.383670
18.530477
64.590722
91.887630
118.475638
115.655503
125.310771
104.499220
120.058526
115.377745
107.403719
93.050209
71.165414
61.872853
36.948446
39.371106
34.350551
34.317427
31.798103
19.347470
11.768916
14.156757
1.894923
-0.502425
-2.807787
4.065289
1.749014
1.684587
3.704312
-0.420717
9.076906
6.817318
6.480548
-1.920352
4.113475
2.432298
5.901714
8.644614
4.705265
7.389694
-10.597195
-11.215875
-9.337723
-5.722779
-2.448318
-0.440026
1.031342
1.253180
0.065422
0.918223
0.108541
1.981412
-4.825912
-0.649549
-3.422201
-2.787168
-5.201815
-6.871943
-9.958942
-6.550017
-3.997558
-4.298520
-4.658365
-10.240010
-5.129436
8.012504
49.979770
88.704851
104.139065
109.318117
105.666401
104.945953
110.982950
103.201758
102.200072
81.422507
59.300736
54.766968
44.989357
40.162694
27.775445
30.166765
22.647418
12.776138
7.797574
-1.913486
-6.686586
-1.872773
-13.431526
-1.793199
-8.426615
-6.019236
-1.647004
-1.584085
12.050932
-5.168692
-4.893901
-6.293295
-7.448819
-1.147351
0.281016
0.259209
3.578597
-4.696239
1.028628
-1.988965
-1.668375
-0.375665
0.074839
0.048075
0.727476
-0.014548
0.106116
0.438329
-1.126313
-1.062409
-0.692491
-2.206338
-0.951447
-0.187775
-2.204500
-2.432918
-0.255272
-0.278617
-1.699221
-7.937057
-1.987273
-5.608420
-0.386715
7.190496
45.110572
78.071394
105.494498
116.289579
104.421088
117.008258
115.448057
117.206150
109.856288
90.587725
61.634651
51.739179
39.029738
39.333176
14.309728
21.852381
16.912292
19.104224
6.820061
-10.258227
4.327428
-0.498872
-2.816516
-5.009260
3.987937
1.699746
-6.626730
1.580366
-4.228389
3.261686
4.803521
-0.340532
1.188117
2.466677
7.217443
-0.237002
0.790183
0.684067
0.568477
3.351452
0.803604
0.904429
0.764559
0.375474
-0.334469
-0.831392
-1.336967
-2.691680
-1.822211
-2.876165
-4.006370
-4.603930
-5.120005
-7.565141
-2.996533
-6.790458
-8.600635
-9.269573
-9.731459
-5.857742
-9.683193
-10.226430
-10.593114
-3.411960
33.918149
72.447528
128.264437
152.696452
178.396613
183.853893
176.981087
164.349793
143.915118
117.744722
76.445753
69.561407
57.232504
52.350890
30.224062
25.202047
27.512420
15.213026
-4.347836
17.341002
2.889821
-6.581904
-1.828360
-6.352911
-1.750636
4.746747
-1.641452
-3.584027
-5.391142
-8.808256
-3.134974
-9.547384
-1.208420
-1.125144
-2.354378
0.253757
2.412281
1.159338
-0.647698
0.835405
0.696171
-0.359010
-0.915971
-0.168402
0.286514
0.080394
-0.334659
-0.328788
-0.828679
1.856786
-0.730316
-3.705629
-2.592062
-2.939213
-0.213657
-2.491350
-3.988381
-5.614710
2.535434
-6.494854
-2.013460
-2.138574
-5.909284
-0.403970
35.341284
78.706859
87.502982
100.869247
105.207900
110.211578
113.081671
110.659174
99.457477
78.428653
51.739179
46.581121
41.824180
34.317427
29.396556
29.311595
16.798130
16.700277
-0.517650
-0.512575
6.699471
1.866499
-7.459892
-9.570298
-4.897707
-2.621571
-8.771087
-8.447356
1.512149
-2.202585
4.770023
1.275283
1.178642
6.568965
2.221728
5.418533
-0.213150
6.661218
1.284906
2.807053
1.756665
1.622109
0.810069
0.554501
0.010408
-1.333950
-0.739319
-0.299792
-2.314414
-1.044991
-3.280626
-5.351506
-1.586373
-5.636080
-1.926310
-5.572570
-0.997455
-3.762023
-4.010643
-9.017728
-2.988088
-1.386074
-5.129436
-1.506361
30.155234
74.250270
89.623125
98.538151
96.510878
100.922634
106.281192
105.901345
90.792455
73.854883
54.714859
57.014683
45.117532
30.166765
30.195413
15.271314
12.825042
5.415960
0.514453
0.508010
-11.437251
-8.924390
-6.411795
7.224998
-3.944948
17.549720
46.064700
60.529818
48.619374
44.475552
40.623642
31.549785
23.446141
10.235421
6.809865
1.440648
-0.856812
4.001312
0.169502
-1.923539
-2.651465
-0.338654
-1.199993
0.215955
-0.183194
-0.010150
-0.206583
-0.061915
1.492711
0.898145
0.488890
-0.154787
-1.000911
1.654478
-0.217210
2.019753
-2.751640
-0.282677
-1.713769
-1.891256
1.330236
-2.144393
3.321849
3.429282
33.757800
84.563352
98.339266
105.275017
104.983096
110.555989
105.875208
113.638020
97.496943
83.525266
66.478956
54.384810
41.904843
36.841864
29.339915
24.338888
6.927253
19.235203
21.535680
6.779864
1.891133
-2.874709
-5.099565
-5.030508
3.953558
-9.024002
-6.657587
-2.406259
-2.313151
5.064800
-2.074562
-0.339517
2.685841
-1.664305
4.751188
3.168850
4.889334
0.691647
1.302096
3.462704
0.365720
2.315859
0.819170
0.146110
-0.224700
-0.568885
-0.739319
-0.663087
-1.848878
-2.222209
-1.897368
-6.212918
-5.972663
-1.741652
-2.983447
-2.094180
-9.867576
-6.437667
-5.431078
-5.911075
-6.337739
-3.172745
-6.951068
-1.510062
30.119548
68.410489
91.948914
103.451173
110.258100
102.063589
104.345498
103.911397
90.355952
81.422507
59.755147
52.350890
35.207856
27.775445
25.178091
25.202047
12.812816
12.715008
5.374459
-4.297475
-4.259704
2.852881
-8.693280
-10.853030
-8.311060
-1.680314
-7.768841
-1.569280
-9.179012
-8.752081
-10.036297
-4.547140
-7.235353
-1.102938
2.842860
-3.290952
-1.913719
0.195274
-1.389125
0.781417
-1.511352
0.089212
0.360872
-0.297969
-0.027759
0.058743
0.155384
-0.369522
-0.088812
0.416883
2.402900
2.063437
-1.848592
-0.197417
-0.220255
-22.014240
-35.512715
-47.115751
-38.895111
-45.613413
-33.987499
-34.198221
-26.321885
-13.962793
25.653542
78.706859
92.512988
103.409474
108.489522
101.933598
102.175456
115.836960
97.688114
76.257222
56.661944
51.789120
49.392886
34.416801
31.890271
16.944910
16.879674
14.281915
-0.517650
1.921452
1.887344
-2.851432
-0.489230
4.052397
-0.463855
3.837530
-6.595872
-0.421225
3.403498
-0.385192
-3.803426
1.263914
-3.277533
3.818698
0.985360
-0.237510
2.807078
-0.180670
-0.151235
0.460466
0.367615
0.937926
0.810069
0.150407
-0.117768
-0.431815
-0.474233
-1.066452
-0.868728
-1.040795
0.838247
-4.617511
-4.224368
-3.742199
-1.922113
-4.488861
-8.664344
-2.434117
-8.379425
-4.363946
-1.332408
2.151027
-5.142521
-1.510062
34.362315
73.356220
92.050291
103.672696
99.263063
104.265880
109.065732
106.419961
93.322135
66.521008
61.986745
50.024953
35.141174
32.699288
25.202047
20.285241
10.373772
5.410772
2.940968
-6.719299
0.505037
-8.835501
-4.104424
-8.533281
-6.078120
-12.317891
-5.711732
-5.489282
-5.293002
-3.239893
-3.067826
-4.507884
-7.179178
-2.467691
-6.111851
-2.094180
-1.880145
-2.518919
-1.363945
0.134809
-1.955544
-0.738628
-0.216516
0.029737
0.031257
-0.113475
-0.247318
-0.069020
0.764928
-0.654665
-0.797237
-0.910712
-1.891089
-0.199955
2.934368
2.067023
2.268999
2.432298
2.604192
-5.076121
-3.750305
-3.957475
-2.260778
9.272479
49.903225
85.445241
107.288622
107.829658
110.877018
104.906837
121.156622
108.780321
100.339366
78.963220
73.780632
54.280123
34.284302
34.184927
34.251177
26.773251
-7.930475
-37.345978
-56.708470
-60.989344
-55.425978
-49.885917
-41.955313
-20.866810
-13.593160
-17.516677
-4.541800
-12.309942
-4.185893
-2.179308
-7.132199
2.844843
1.171063
3.771802
-1.492637
-2.491350
-1.198765
3.203867
1.272014
1.052850
1.266200
1.599100
0.755457
0.282159
-0.046264
-0.293773
-0.499414
-1.059909
-1.380499
-3.490295
-2.639984
-3.048870
-4.280543
-3.706644
-6.315126
-8.027259
-8.791760
-5.199968
-5.528855
-2.828611
-1.345362
-3.193729
-3.307041
-1.528568
40.351881
77.522788
92.557176
97.603493
100.196572
93.489657
112.201325
104.519659
88.012906
66.776367
59.584743
42.639959
37.578061
30.138117
15.373317
12.849494
10.294734
2.949493
-6.758555
-6.699671
0.501072
-11.178845
-6.392167
-8.462170
-3.911374
2.545997
0.430694
-7.431065
-3.378386
-8.617261
-3.051039
-1.260236
-5.653299
-2.455100
-0.997455
-2.043819
-1.838178
-0.695813
2.425912
-1.133123
-0.906499
-0.305343
0.054023
0.391762
-0.005312
-0.485597
-0.267685
-1.087740
-0.993353
1.567676
-2.106050
0.604481
-4.544403
-2.124819
-1.291873
-2.592279
4.805800
2.449487
2.621381
-0.337995
-8.926059
3.227307
-0.394327
1.542468
46.314981
87.841063
101.161442
113.103916
109.178344
109.479160
116.620119
111.539168
95.326021
75.961365
59.034155
41.824180
34.350551
29.424877
24.315372
14.309728
9.356747
19.104224
9.247524
1.902503
-5.269551
6.525285
6.404694
-2.720499
-2.644848
-4.711786
-2.467361
-10.278113
-7.971876
-7.557096
-0.357280
-5.076121
2.634273
-2.995994
0.960726
8.682037
2.726685
1.508368
3.347756
2.726523
1.647443
2.169079
0.737253
0.389380
0.406033
3.204370
7.916128
11.513346
12.716746
14.049463
11.485922
5.012721
2.893013
2.194398
0.231950
-2.131950
2.853236
-1.086283
0.310754
0.337517
-8.190330
-4.992040
-3.328025
6.207923
51.103576
77.784690
106.101774
102.235572
105.054368
109.875336
98.231850
107.146023
78.819602
66.840206
47.459891
35.074493
40.200727
27.722840
30.195413
15.300457
10.334253
12.739460
-1.907934
7.707167
2.875613
0.492646
-1.813555
-1.769142
-10.381159
-3.777078
-7.733286
-7.431065
7.943345
-4.965870
-4.723792
1.920864
3.268252
0.286964
-3.461061
4.781815
2.215148
1.057044
0.895077
-2.302208
0.588194
1.190354
0.051049
0.264573
-0.002537
-0.276226
-0.541829
-0.430624
-0.096932
2.157149
-1.519245
-0.936899
-1.067832
2.719985
-5.646077
-3.810948
-2.826009
-5.766459
-0.314650
-1.949448
-3.824674
-2.205495
-6.063573
3.510932
48.233134
77.861254
99.879255
103.971482
104.389221
109.703964
119.847491
106.246578
90.852860
68.826836
54.070750
51.639296
34.383676
34.284302
29.396556
11.883959
14.309728
6.826761
11.676881
-2.918353
1.874079
-5.189870
-0.485677
-7.182171
3.897693
-0.444062
-10.603608
1.548152
-0.396865
3.184333
6.380427
-1.899985
4.079978
-1.623570
0.955041
-1.335517
1.744723
-1.000911
0.545738
0.441517
0.348666
0.246340
0.691744
0.287608
-0.051816
-0.136942
0.669213
-1.502213
-1.937766
-1.727259
-3.404211
-5.542632
-1.624143
-3.768866
-6.410192
-5.707390
-4.915525
-5.235523
-7.089298
-10.910065
-6.524404
-3.223106
-3.353205
6.245593
46.722634
82.701536
95.114137
109.449926
146.125502
175.216570
177.239446
158.345418
144.887518
111.372507
71.958411
62.459926
44.989357
35.107833
25.226003
22.604198
12.776138
15.169311
2.935285
-4.301672
-11.369841
-8.826612
-10.875500
-3.982718
-12.548766
-1.656257
0.427720
0.409878
-5.194862
-3.189532
0.357342
-5.973297
0.309267
-3.762023
-2.190705
1.366769
-1.771030
1.877948
0.869504
-2.257764
0.576828
-0.629513
0.048075
0.207508
-0.005582
-0.302787
-0.311330
0.640305
-2.503803
-3.067159
0.540053
-1.747663
-1.079471
-0.209597
-1.318060
0.941777
-1.579926
2.466677
-1.803967
-6.828701
-10.787986
1.438247
-0.400925
19.235952
60.970997
90.662728
97.159871
102.189237
97.858183
116.737676
119.727882
106.562162
90.587725
68.626564
49.345347
46.716531
39.409036
31.705934
26.825087
29.311595
14.295821
16.732894
-5.407664
11.550334
1.883554
-2.831064
6.364497
-2.697222
-0.459287
-2.528463
-2.455723
-0.410060
-0.392297
4.944209
-3.702497
4.354656
-0.306530
2.359243
0.955041
4.132260
0.752285
1.473990
1.889251
1.527479
-0.088812
0.824035
0.646234
0.172936
-0.222450
-0.543040
-1.460553
-0.320148
-1.439383
-2.373319
-3.471621
-1.477257
-1.636734
-2.813339
1.346878
-5.786036
-11.526124
-6.639897
-5.653299
-1.280592
2.094197
0.382619
-5.260289
12.152935
49.360478
87.016402
100.175682
98.433278
98.538418
100.971465
106.005069
105.127921
81.188758
64.322256
44.733007
42.438065
35.274537
25.226003
27.722840
12.849494
5.431523
10.235455
-4.347836
-4.280688
0.499089
-8.826612
-1.796900
-3.965931
-10.313749
-10.010403
-5.607049
-7.359955
-1.469350
-13.778059
-9.669612
-7.471289
-6.954478
12.360996
24.751683
32.278487
26.685011
21.953198
15.737036
12.291511
7.065960
3.068639
1.505707
0.171194
-0.171982
-0.189126
-1.163408
-2.312777
-0.105560
-4.330891
-0.852520
-1.811408
-6.548307
-2.204500
-3.564085
-2.693208
-5.564127
-3.118172
1.197592
4.582438
-5.592991
-7.718962
-0.400417
17.397451
61.328808
93.307638
91.153926
102.079238
106.781522
105.444821
107.596757
101.895633
83.687608
63.873347
56.497707
44.358226
44.230023
26.799169
19.366182
16.863365
16.667659
9.293033
-2.950359
1.906293
-12.381308
-7.475321
8.628595
-0.471975
-4.791466
3.717204
-10.528494
3.476553
-5.924713
-2.135664
-3.670624
-3.436894
-1.734136
1.030838
3.316238
4.059445
-0.198432
1.405232
2.521225
2.588471
0.329717
0.817335
0.270733
0.136528
-0.151083
-0.562668
0.067404
-1.564435
-0.935876
-1.773058
-3.505326
-3.954727
-5.378043
-2.846052
-6.505259
0.256235
-6.325317
-5.306634
-1.191765
-1.291695
-1.376821
-3.239893
-3.378386
18.109291
53.376404
83.161500
102.343559
103.211309
101.026357
98.833016
103.708643
90.617854
84.034491
66.712527
49.882702
37.649434
22.820299
35.141174
17.848543
25.154134
5.400397
5.369271
-6.752013
-9.057722
-4.230327
-11.111435
-8.595503
-6.202430
-3.848422
-7.893285
-3.588224
-3.458124
-8.853196
-11.961254
-6.293295
-2.757267
0.305302
-3.683511
-0.941938
-1.943097
1.156497
-2.289927
0.821198
0.118453
-0.347906
-0.251677
0.595177
0.306273
-0.055283
-0.036540
-0.616197
0.308872
0.876659
1.100121
1.272014
-0.995091
2.545799
0.799658
4.259686
-0.258825
5.006041
8.204800
-15.576890
-41.608420
-49.202731
-56.834104
-51.707618
-30.074109
24.327208
61.483045
71.679948
98.356981
93.872180
107.359199
105.194632
109.533498
95.419204
68.893593
51.439531
44.272758
31.859548
34.284302
21.852381
16.781821
9.320339
-0.516127
-2.935811
-0.505977
-5.232366
-0.492782
-7.328746
-2.700131
1.699746
-2.528463
1.584156
1.529203
5.151893
-2.121116
-1.987273
2.737409
-1.722497
7.551197
0.930407
-0.222285
0.733335
-1.742351
0.509734
0.932524
2.336282
0.481303
0.117485
0.054611
-0.184657
-0.373511
-0.583349
0.514314
-1.504809
-3.112101
-2.817760
-1.506634
-1.661914
2.261838
-2.035425
1.480429
-3.690053
-3.925589
-8.800433
-7.886984
-6.595515
-3.256680
-7.182178
20.171220
57.714127
89.722157
91.801809
101.083809
105.379614
101.681104
106.212515
97.734898
74.209273
57.123594
47.414820
50.024953
32.668294
17.814707
15.344173
5.436711
0.517427
2.949493
0.510984
-9.093277
-11.279961
-4.146392
-13.105584
-3.978522
-12.453700
2.506216
-1.582234
-7.315511
-6.951068
-1.378672
-2.925137
1.858351
-3.951759
-3.644255
-4.524417
-0.849410
0.197752
0.169998
2.162226
-0.998827
-0.338654
-0.244275
0.389078
0.124505
-0.078560
0.509160
-0.063437
-1.280602
-0.634298
-1.397068
2.029940
0.651854
-2.962356
-1.239500
-1.379162
-0.259332
-1.611932
-4.590110
-1.859250
-7.061383
-2.135664
-2.231682
5.326079
25.315591
66.057239
94.577549
109.082746
100.495371
100.986846
124.659385
118.026593
100.045403
85.997359
64.059206
59.034155
39.522825
34.416801
34.350551
26.617744
14.337541
9.356747
9.256626
6.786564
11.515821
1.868394
1.832391
-14.055716
-44.912053
-65.319214
-62.343561
-58.385168
-46.530371
-35.167402
-26.492988
-16.778886
-12.545728
-8.743789
-5.412378
-3.749232
0.833766
-1.102748
0.606375
-1.418317
0.403619
1.098713
0.208442
0.108011
0.032618
-0.528046
0.508395
-1.288881
-0.784793
0.115479
-3.123336
-2.126361
-0.671756
-1.687095
-4.965879
-2.043819
-3.467603
-6.415197
-5.368856
-7.336468
-4.658365
0.371219
4.041219
2.310152
26.190425
68.176740
87.886566
96.566261
103.536555
102.063589
106.917607
108.826850
102.497165
66.904046
64.629724
45.117532
32.730283
32.885256
22.798689
17.780871
17.696281
5.415960
12.690556
0.509002
-1.893130
-4.213540
-11.044025
-10.853030
-12.766061
-14.589226
-1.626648
-5.587421
-5.338801
-12.439067
-4.861187
-1.287994
-2.711102
-8.107807
-2.304017
-2.115163
-1.905326
-4.471538
0.164546
-1.175091
-0.952663
0.086733
1.225093
0.201748
0.009417
-0.101837
0.348085
-0.384070
0.756333
0.414988
-1.407692
-1.667983
0.657538
-0.199955
-1.251138
-0.243600
-0.263392
-1.620661
-1.737046
2.771788
1.324551
-2.135664
-2.231682
5.359577
39.694956
70.050830
100.374631
100.869247
105.545104
108.804751
115.916882
110.879173
99.555464
83.038238
66.478956
49.012575
51.739179
39.143527
31.767380
24.409436
19.310048
6.866958
-10.329043
6.739668
-0.504962
-12.281156
1.822916
-5.035821
-2.688493
-8.993652
-2.508096
-8.396773
1.510254
-2.214224
4.830318
-0.344592
2.724517
-0.294350
-0.268975
0.915248
1.877940
5.228822
4.394435
0.498365
1.902296
1.058516
0.690045
0.455095
-0.031854
-0.828209
0.958339
5.628862
11.076287
14.819946
14.746957
15.552782
11.251035
9.750222
14.869985
14.152310
2.770233
6.981028
-1.126995
-2.782447
-1.321304
-4.920071
4.061970
-1.513763
30.226607
68.566322
90.118281
108.526298
106.441731
97.545611
111.869041
106.627408
87.842997
71.821348
57.123594
42.559202
37.649434
25.249960
25.273916
27.722840
10.363892
2.960859
-4.347836
0.509497
-9.039944
-6.549191
-8.746613
0.477282
-1.737682
-10.235104
-5.750988
-7.502176
-5.325715
0.383610
-10.009135
-4.514427
-7.235353
-8.094226
-2.291427
-4.426639
-1.871752
1.093983
-2.172159
-1.145714
-0.405274
0.483058
0.056996
-0.425272
-0.011103
-0.316293
0.596253
-0.733062
-0.089827
-1.774328
-0.138547
-0.159355
-1.030007
-2.103571
1.890832
2.049834
-0.264915
2.410811
-1.748684
-1.891256
-3.744993
4.950909
3.304659
11.194685
31.823081
80.789502
100.936639
107.126421
104.983096
99.091690
109.009187
106.141384
97.496943
81.211018
59.091304
54.227780
46.987351
34.350551
34.383676
16.912292
21.767927
11.803429
6.813362
6.726269
6.686072
-2.854341
-0.486692
1.788808
3.914882
-2.580837
-6.619015
3.545311
1.504569
-4.031844
-0.364385
1.271494
-0.319217
-0.291812
2.260404
0.909563
1.834967
5.075851
2.050038
1.091526
1.386790
1.004921
-0.293872
-0.233730
-0.012954
-0.101781
0.768457
0.767780
-1.759989
-0.449688
-3.201981
-2.959982
-4.145723
-2.662858
-0.836456
-6.722553
-0.986352
2.977741
-4.010643
-7.482524
-8.055510
-8.493676
-5.168692
-1.517465
30.440727
69.111735
88.079936
102.018741
93.300920
97.545611
102.390743
101.605886
86.160515
62.045892
39.972529
30.166765
47.640176
79.877583
92.014661
94.487541
74.776297
61.691006
41.832384
34.174292
21.977504
14.630152
9.751346
0.475795
2.653975
0.448536
0.432676
2.398239
-5.266832
2.190808
-6.515516
-4.494799
1.818570
0.293407
1.534418
0.242854
0.220055
0.189327
-1.351354
1.400679
-1.445925
0.855971
0.866397
-0.239215
0.014208
-0.139662
0.408248
0.270974
-0.532461
0.984092
-0.811785
0.608270
-1.907025
-2.135443
1.895130
-0.246137
-1.545010
-0.289275
-0.306022
-3.490015
1.343501
1.407928
5.185390
3.459364
41.950686
80.975867
103.093747
112.371852
108.489522
111.130007
109.119186
110.549175
92.959428
68.960350
66.414600
41.703184
36.841864
19.347470
14.434886
31.675211
14.295821
14.198476
-0.517142
4.336022
1.891133
-5.211118
-5.104877
6.290803
-9.256684
8.046074
1.610685
1.561417
-2.301513
-11.235620
-5.531275
-0.341547
1.182432
-3.033179
-0.264915
-0.242077
0.801553
3.285784
3.428286
1.070039
0.842280
1.725647
0.176228
0.247880
0.031257
0.176174
-0.205413
-0.650497
1.521845
-2.186653
-1.910453
-0.619940
-2.486206
-5.595337
-0.853111
-2.094180
-6.089381
0.285973
1.767422
-5.973297
-9.764678
2.159551
-12.582411
2.338567
40.541549
73.521437
97.159254
99.386704
97.626025
107.331088
107.766159
99.488753
93.501428
71.821348
52.500179
52.500179
35.274537
22.777079
25.297872
12.849494
5.452274
-1.931991
5.364083
-11.538366
-4.255507
2.835832
0.485707
-13.051260
-6.110833
-3.781274
-7.759952
-9.448652
-7.182178
-10.484467
0.362794
0.339004
-4.154581
-1.073329
-5.943326
-3.179727
-4.887234
0.184371
14.062190
15.926830
13.597864
10.690964
6.456823
2.323434
-0.138454
-1.150662
-1.226864
-1.126313
-1.488893
-1.805186
-0.142100
-0.942718
-2.800353
0.767444
-1.312241
0.928512
-0.272527
2.445190
1.157798
1.256334
-2.080381
-5.778138
-2.257868
9.364514
46.205489
81.255415
94.359585
103.859081
110.994224
113.689965
104.563464
106.667357
87.867314
75.961365
63.997253
51.689238
26.825087
29.396556
26.747333
19.328759
6.873657
9.283931
-2.973636
1.908188
-5.290799
-5.200494
-0.485677
-0.474512
-4.828651
3.790259
-0.429852
-2.391711
-9.852467
-2.164760
4.703028
-0.333935
2.655760
1.074422
-0.260855
0.896299
0.778813
1.542747
2.694160
1.621272
0.812198
-0.727750
1.321018
0.345129
-0.258405
-0.123988
-1.325732
0.082769
0.599560
0.126383
-3.336801
-2.244128
-2.479664
-3.733310
-4.097753
-4.506639
-3.585371
-3.820906
-11.420805
-1.256535
0.361802
-3.202122
-1.473051
2.358457
46.777089
75.949361
101.678990
97.810939
99.885402
107.439503
115.369469
95.120565
78.970742
71.958411
57.559236
44.903907
30.367304
30.281359
17.814707
22.712249
15.242170
7.865379
0.512471
-6.699671
-4.251311
-4.188359
-4.091834
-6.254771
0.458944
0.444571
-3.651175
2.372665
0.396000
-1.415683
-3.025859
-1.252834
-1.164006
-3.788193
-0.977099
2.500472
-0.792042
1.037153
1.592624
0.730269
-1.328158
0.426227
-0.168402
0.110819
-0.043644
0.102326
-0.802305
-1.164885
-0.102007
-1.882331
-2.198624
-0.960176
0.695437
-2.172627
-0.229390
0.930407
-0.274050
-3.049115
-3.266909
-3.559071
4.803521
-3.989347
7.126783
19.141889
56.476725
81.814512
66.567895
57.306349
29.186664
36.867741
52.081700
55.457536
46.129753
41.461193
31.798103
21.852381
24.291857
16.830747
29.254954
16.814439
-0.522217
6.840160
9.229320
-2.929992
-14.757009
-7.521608
4.112560
-0.471975
-4.807403
-4.658665
-0.427315
-6.279578
-0.395850
1.406033
1.324551
2.819059
2.595597
3.738305
-0.259332
-0.235480
3.695369
-2.684635
2.603142
2.166251
0.350561
-0.727750
-0.419652
0.120326
0.012886
0.037171
-0.220217
-1.484435
-0.392320
-2.909870
-2.675539
-3.048870
-1.615750
-4.797354
-0.866065
-2.131950
4.196375
-1.086283
0.311745
-4.475171
-4.776133
-5.057467
-7.102179
0.411860
42.895881
78.657694
91.306654
95.902616
100.507741
103.411990
108.508642
94.936580
88.777496
71.821348
57.178049
42.882232
27.854352
27.749142
30.138117
12.861719
10.344133
2.960859
5.358895
-1.896831
-1.869072
-6.496849
-4.079244
-10.718210
-10.369924
0.441597
-3.659568
0.411364
-5.227576
-6.782181
-3.021662
0.333552
1.767422
-3.768565
-9.630023
1.352561
-1.775226
-3.173314
-0.557021
1.312488
1.042728
-0.612726
-0.177654
0.379005
-0.259853
-0.493726
-0.594949
0.293713
-0.587744
-1.913189
-2.943929
-1.774224
0.704911
-2.209812
-1.326789
-3.849520
-4.188957
1.095266
1.182432
-5.207267
-9.063768
-7.648145
-2.295693
11.403282
54.637593
88.945351
91.053536
99.742193
107.006325
111.818830
102.278248
94.673741
78.199553
73.565945
59.091304
39.257317
39.446966
36.841864
26.799169
26.747333
4.430564
19.066801
-0.516127
1.902503
-2.874709
-5.168622
4.082479
-0.472990
-2.630300
-23.458606
-50.935490
-60.583055
-45.192623
-48.308381
-38.865097
-22.225093
-11.855318
-2.953498
-7.535177
-2.422293
-1.169669
1.456800
0.534368
-2.397633
1.226003
0.864232
0.138329
0.077352
-0.183194
-0.529954
-0.236873
-1.921189
0.107550
-2.337763
-2.764427
-5.574486
2.023204
-0.790192
-4.222196
-3.389092
0.276060
-6.617427
-2.685922
-1.276891
0.365767
0.383114
-9.077897
8.249619
55.412893
80.592315
91.801809
100.659532
96.753363
107.981580
115.256361
102.893290
86.243123
62.105040
57.069138
42.720717
45.202982
30.281359
15.373317
17.831625
25.154134
7.842777
7.774972
5.296643
0.499089
-6.464136
-10.897970
-3.978522
-1.702521
-1.650705
-3.617601
6.222991
-1.474901
-4.952784
12.045652
-1.230627
3.221563
2.951802
-0.965996
-1.976671
-1.737456
-1.477257
2.222497
0.121427
0.094663
0.067900
0.233004
0.160819
-0.049464
-1.014638
-0.325878
-0.471359
-1.088970
-1.959475
-0.864158
-0.170012
-2.916070
-0.212642
-3.564085
-1.469360
-4.212101
-5.928324
-6.343105
1.294233
-3.851234
-4.031844
-4.196517
15.361966
61.328808
84.019425
106.188772
98.041397
102.862499
109.479160
104.773853
96.636676
80.580864
76.035329
46.806805
44.443695
24.432952
26.851005
36.735282
16.830747
9.347645
6.840160
1.923347
1.891133
1.870289
4.159831
-5.025196
-2.705950
-9.135285
-4.637417
-2.446994
1.534888
3.339038
-0.372505
4.662832
-0.328352
1.135059
1.044103
-0.252735
1.946698
-1.146392
3.819433
2.493919
2.047926
1.159008
-0.956594
0.618929
0.109223
-0.475332
-0.737773
-1.226659
-0.325700
-2.471705
-2.999750
-1.296797
-5.622267
-6.291205
-5.894117
0.237402
16.117185
32.036030
38.048484
39.663341
31.549785
30.041789
20.463349
30.768579
31.985630
76.038681
93.869459
107.256309
103.428140
108.213914
111.093711
113.308940
98.017914
81.734172
64.568230
59.925552
47.640176
20.439355
30.281359
17.814707
10.413291
5.431523
10.265094
-4.326852
-6.699671
-6.608074
0.490168
0.479264
2.696598
-3.856816
-3.743504
-9.628413
-7.333288
-5.129436
0.372706
-6.275517
1.875400
-2.560019
-2.341788
2.661291
-0.864215
0.202213
0.172476
1.494058
-0.998827
0.092185
0.375080
0.224480
-0.046264
-0.111553
-0.037047
-1.527320
-1.709704
-0.628479
1.087229
-3.065328
-3.449759
-1.117296
-4.309669
-7.012937
-1.489728
-5.543894
-3.107547
-7.912019
-3.644064
-2.124026
3.291767
-4.217765
15.324544
69.726145
87.013044
98.235839
103.069231
109.752363
114.862027
103.306170
106.456968
78.428653
66.350245
61.575101
46.897078
36.806337
26.747333
19.422316
21.746814
14.184570
4.370401
-2.938720
-5.312047
4.224291
-12.118409
-0.480095
-4.897707
-13.309659
-8.781204
-6.433868
-4.265574
-0.389760
1.377609
1.298022
2.767491
-4.582395
-0.274050
-1.443174
-1.303512
2.599395
-4.081200
-0.788508
2.496437
0.320242
0.219811
-0.493726
-0.020367
-0.373331
-0.808884
-0.909428
-0.768006
-0.969450
-1.799228
-2.067477
-3.182203
3.902514
-1.842374
-0.888272
3.925155
1.599773
1.713434
0.320666
0.348916
-4.867730
-1.439741
0.402443
20.195176
62.018256
98.224208
103.340411
92.624126
108.546198
114.012181
101.110730
95.764515
76.665425
59.811949
42.720717
27.775445
25.297872
22.841910
12.959527
17.780871
42.074657
64.076282
68.303875
60.567201
57.199081
51.536186
36.853835
29.320879
19.773271
14.955557
8.437335
6.185322
-3.286057
3.875213
1.994744
0.324631
0.299354
8.087385
0.252271
-3.022703
5.814174
-0.625491
2.139624
-0.433033
0.944162
-0.528791
0.378702
-0.035161
-0.014717
-0.403716
-0.064452
-0.897736
-0.634298
-1.381132
0.581741
-5.192557
-2.954642
-3.324936
-0.239032
-1.498456
-1.614841
-5.978907
-0.324800
-2.019279
-7.405347
-9.602086
1.504569
23.505917
65.828139
97.569272
104.930606
102.739234
96.474585
103.195934
107.811950
97.305773
88.211218
63.997253
46.671394
39.143527
31.767380
31.767380
21.852381
21.683473
9.320339
4.357509
4.331725
1.896818
-9.944612
-9.762514
-7.305603
1.749014
3.828935
-10.791393
-2.409169
-6.171576
-4.053092
-3.835298
-1.984364
-0.321247
-1.713769
3.590916
-1.425716
-1.283144
-2.908355
0.610165
-2.691014
1.975111
0.717657
0.216021
-0.308099
-0.011638
-0.294419
-0.398692
-0.612726
0.092681
0.114984
-3.789075
-2.119818
-3.208869
-0.745778
-3.928865
-2.048015
-3.454518
-2.392149
4.550468
-4.285434
-4.645280
-3.151761
-3.277664
2.330042
18.238951
74.675042
92.557176
105.302917
108.583029
97.347549
105.071560
99.392068
110.311816
86.243123
71.958411
57.450325
37.720808
32.761278
17.831625
25.249960
15.315029
5.421148
5.400397
-4.326852
0.504541
-6.555733
5.099510
-4.054063
-8.364393
2.597145
0.436641
-13.569891
4.227977
-6.959957
-6.586626
0.344456
-7.302763
1.704909
-4.897748
-0.936387
-5.123169
-1.653521
0.949066
-1.812313
-1.982210
-0.321999
0.058979
0.321637
-0.097777
-0.858569
-4.322032
-9.897232
-12.063479
-15.113236
-16.110393
-16.434392
-17.783642
-9.493317
-5.433253
-11.652004
-6.509889
-2.953498
-4.590110
-6.575786
-3.702497
-5.700993
-11.489279
-0.403462
27.493691
69.969659
91.382274
95.937504
103.179230
