900.660665
713.501793
191.043763
205.618701
196.897266
116.435617
53.279208
24.296479
10.157848
5.462018
0.985822
0.952748
0.920741
-6.858754
6.385251
-4.329213
0.759638
3.832592
0.660415
-0.727865
-1.898945
-3.987840
4.444058
-3.044658
2.494365
0.275262
0.220850
0.554552
-0.353124
-0.180166
0.029888
0.062543
-0.110613
-0.169678
-1.120367
-1.982594
-3.719703
-1.109538
-3.907538
-5.297370
-4.714188
1.817113
-1.862929
-6.044637
-3.684507
2.509865
49.378192
91.951619
110.633915
130.444684
137.961388
134.716097
127.008835
132.117482
139.317131
129.228223
127.083267
121.457606
101.942857
82.547880
65.633281
62.920309
48.416035
45.023533
45.241459
42.430437
22.924280
20.441658
10.785229
8.277889
28.627289
63.534169
59.495728
61.732625
57.496074
49.651808
25.307126
23.524486
17.099159
11.435797
13.323896
9.290477
7.212905
6.336284
6.887513
6.661948
4.457808
4.232543
2.631774
1.220926
-0.399249
-1.563372
-2.732789
-3.498662
-6.121597
-4.568370
-7.439493
-9.372781
-9.218503
-9.429354
-9.359477
-5.863516
-6.135335
-10.273846
-5.739351
-16.038038
-10.815150
8.282875
58.485866
117.102943
143.539610
155.194726
142.372287
154.435670
147.339728
150.542576
139.829795
139.438792
144.328781
148.626045
147.450556
128.449900
111.412996
90.266479
77.129406
74.535451
67.065485
55.062173
47.706733
45.211617
27.556142
39.428681
29.583299
22.149569
10.241109
-8.190792
5.496442
3.177618
-1.153932
-13.338565
-3.033987
0.867395
-2.788962
-2.677260
0.745768
-5.377793
2.037894
-3.289964
-0.637833
0.489710
0.428897
0.365949
1.652375
0.836931
0.656617
-0.515273
0.285781
0.183597
-0.086626
-0.846553
0.442491
-1.308187
-1.230094
-1.495748
-3.847969
0.435247
-4.012298
-1.462262
-1.619789
-0.559509
-1.900598
-4.802103
0.818162
50.325569
97.001021
121.529399
128.435861
134.309936
128.483622
133.187828
135.392924
118.314645
115.711727
126.229570
129.741034
119.462341
104.396567
82.863250
62.800232
55.901274
36.029050
43.296364
35.823951
25.772646
20.803102
23.350465
18.315005
6.061246
-5.769314
-3.335464
-12.146754
-7.524107
-9.355045
-2.931373
-10.504954
0.990474
-2.568376
-5.720271
-6.872239
0.770936
3.269725
-1.688279
-0.478965
0.500342
1.948685
1.596009
1.225400
1.941282
1.035809
0.263013
-0.183348
-2.071570
-7.988149
-12.502796
-17.322683
-14.937671
-18.008842
-19.265912
-20.689568
-19.044526
-8.737756
-9.455928
-6.653085
-7.287328
-7.636809
-2.259276
-2.417821
-7.659540
9.620878
59.951338
89.065306
115.756929
127.469620
118.388105
119.528816
113.070200
116.314510
123.456707
113.946226
113.811004
87.856497
69.042699
64.622810
54.485331
40.120412
40.081983
27.770170
17.918082
8.298404
3.487214
-1.292150
-1.271861
-5.855424
1.039167
-5.623820
-7.710928
0.962350
2.949673
2.868021
-4.768667
0.824719
0.778842
0.739366
-8.400490
0.642278
0.592133
-2.998975
1.571798
-0.512295
1.177147
3.049436
1.921226
1.061422
-0.176260
-0.096372
0.091858
0.119551
-0.404256
-1.699808
0.602077
-1.714456
-2.096349
1.095346
-4.386684
-4.001822
-0.458561
-2.725842
-4.225200
-7.182875
0.758172
-0.695895
-7.333182
-11.276406
6.479072
54.074488
87.841283
112.177277
110.247528
112.791702
113.573318
111.931763
117.381847
119.128601
99.202955
87.386469
67.717662
45.808067
33.615503
33.551838
30.956389
26.020460
11.201688
3.790186
1.319781
-3.516962
-5.861715
-1.079282
-12.570031
1.218946
-11.980009
-9.438852
-0.930008
-6.792822
-0.855908
-7.930312
0.911338
8.677142
2.248723
-1.951966
0.653508
3.897437
0.529699
1.291202
1.059076
-0.251296
1.105849
0.771105
0.641245
0.202890
-0.264753
-1.237599
-0.760136
-1.431320
-0.273900
-2.151117
-2.498605
-3.628203
-1.369258
-0.532584
-4.933083
-6.471872
-1.974614
-3.468121
-0.774783
-5.501896
-2.569160
-7.988412
11.821033
47.794291
79.357311
103.697750
120.753503
116.991881
124.452529
113.700512
124.580176
126.202963
105.993801
78.368753
18.022560
-8.554827
-27.952009
-23.108994
-30.315087
-15.798484
-18.142679
1.095713
-6.051397
1.080777
-3.614120
-8.165972
-1.227479
1.009294
-5.499110
-5.315015
-11.235170
-3.019574
-4.750851
-2.752929
-7.744410
-0.872423
3.666207
-2.133160
-1.967407
1.701080
-2.678292
0.420361
1.136322
2.292555
0.247522
0.188843
-0.162311
0.238151
0.071445
0.101555
1.016242
-0.441761
0.219538
0.805188
-0.286735
0.396955
-1.198575
-5.066492
-3.558919
-6.195229
-5.520838
-4.590843
-2.071823
-5.330253
-7.427465
-6.102165
-8.160784
33.482521
68.932756
96.708514
112.263061
117.923337
111.675785
110.072832
122.120338
105.008329
106.543539
87.637099
63.280539
53.674895
31.103800
26.169148
18.811442
13.680178
11.223045
8.694282
1.321057
8.552709
-10.685493
-10.455022
-10.266454
-3.284096
-1.004108
-7.353474
-5.041653
-10.761485
-4.614296
-2.599196
0.920273
-0.720595
2.266857
-0.614278
-3.014597
-2.737392
-1.434866
0.458222
3.182176
2.584184
0.243789
0.800993
1.055328
-0.028996
-0.086479
-0.273852
0.128029
-0.608959
-1.778808
-1.520272
-0.385489
-6.024074
-4.073772
-3.466608
-1.657523
-3.004913
0.581464
-3.462183
-12.288717
-2.403408
2.435947
2.565229
0.833254
27.277277
65.782760
104.779187
107.542858
120.046817
117.839364
113.936160
116.881769
111.816264
109.014691
80.861232
66.680788
61.942352
47.343253
32.523884
30.281430
13.290828
20.320759
15.469872
1.091446
1.083977
-5.968257
5.645615
-1.230015
-5.611943
-3.315046
-3.217756
8.950563
10.576594
6.433685
6.151152
2.446153
-0.863547
3.666207
6.088464
-1.931374
-16.742357
-27.582007
-25.661119
-24.233392
-16.223926
-10.505670
-6.923191
-3.153698
-1.127312
-0.082735
-0.039735
-0.094504
-0.462308
-1.045291
-1.844463
0.344624
-1.088991
-3.792302
-2.292710
0.562885
-5.112275
-4.298329
-5.929401
-7.824203
-2.270444
-9.170992
-6.126541
-8.213163
18.348396
62.946056
92.657372
108.702495
111.316107
114.642522
105.656558
108.225714
110.259629
87.135838
70.444432
45.982408
48.370099
23.642065
28.705324
21.285027
16.163675
11.201688
3.779305
-3.537509
1.312122
-10.643589
-5.786639
-7.987254
-10.088363
-9.795035
-13.719880
-11.184762
-10.812792
-4.637397
0.975157
-4.181165
-2.325236
-3.644081
-0.617500
-0.567026
0.612664
-4.483717
2.199742
0.393126
2.106948
1.177579
-0.158939
-0.097726
0.049779
-0.124103
0.068282
0.120560
-1.718623
0.217649
-2.051835
-1.055770
-1.989419
-1.336828
-3.425240
-1.635903
-1.787242
0.576130
-4.773825
-5.046852
-0.838186
-4.234196
0.798046
0.827920
23.416475
71.766499
86.353732
113.431259
110.787168
108.675526
109.872677
122.127387
108.165501
99.131640
77.762418
56.528232
44.866820
27.930691
27.770170
32.492460
20.419499
22.679568
8.266114
22.502902
8.145029
-3.592500
-8.141151
-7.934313
-3.401525
-1.160272
-5.291260
-5.113103
-1.056291
4.572719
-2.727706
-0.915537
-4.020408
-3.729418
3.339175
-3.177132
-2.903958
-2.624845
-1.358448
1.847447
2.123035
0.741671
1.348087
0.384444
0.059747
0.034826
-0.143829
-0.747535
-1.129429
-2.011387
-0.791060
-1.599700
-5.608783
-2.073257
-0.434935
-5.707820
-2.829794
-6.900690
-6.023685
-7.862682
-6.976999
-14.252342
-2.582074
-8.255067
33.936102
107.855176
148.068565
164.980412
163.354340
157.738586
159.981613
142.754059
132.176883
111.972400
75.165294
65.570892
48.645712
41.178512
31.162764
23.642065
8.835856
8.702610
11.105582
6.180797
-10.769301
1.289148
-12.762429
-10.266454
-7.816621
-5.376608
-3.102598
-11.210415
1.074715
1.028765
2.778260
-11.003222
-8.709236
-10.972182
-1.965664
-5.499886
-3.875809
-0.456413
-2.096357
-0.328617
-2.023221
0.250171
-0.155717
-0.519758
0.191282
-0.140650
-0.721397
-0.142022
-0.598150
-0.263756
-0.320818
0.319005
-1.217919
1.286017
-1.513390
-0.585842
-2.981159
-4.509072
-2.082713
-2.223242
-2.399805
2.435947
-4.436107
2.646881
34.953882
71.681367
96.966532
116.809308
115.217938
109.368463
112.371187
119.678979
107.634758
101.621786
75.586818
66.167859
49.680746
45.039219
32.492460
27.716663
25.322059
20.301011
20.241767
5.834950
3.436182
1.065840
-8.074963
-5.730714
-1.197046
-5.439724
0.946346
6.901883
-4.899315
2.691109
-4.495493
2.429142
-2.417821
-2.259276
5.984388
1.796341
1.650048
-0.555409
-2.209146
1.813023
2.778837
1.703272
0.923724
0.350423
0.298346
0.001276
-0.774020
-1.026645
-0.506826
-2.462700
-3.065548
-2.964701
-1.882679
-3.014518
-2.350461
-3.680800
-6.413281
-0.579913
-0.622869
-5.013363
2.419190
-2.465641
-2.606045
-8.276019
28.132740
71.847383
99.680169
107.250675
107.595976
107.949600
117.374935
108.760955
105.724760
94.581119
82.784407
65.882838
53.624258
41.139627
21.244866
23.664496
11.244402
-1.126534
6.216662
-5.954117
1.308293
-10.612161
-8.133511
19.638449
44.052161
53.880747
54.094655
44.256470
40.608614
31.301890
24.415806
14.517995
7.197272
5.221566
3.443075
5.584827
1.737320
-0.456413
-1.253367
-0.332913
0.321649
1.219422
0.533165
0.118704
0.126944
-0.071263
0.066148
0.370835
-0.562116
-0.745885
-3.210049
1.658113
-0.420995
0.397956
0.441699
-1.632300
0.529186
1.843971
-2.086317
0.654014
-5.485349
-0.901588
2.544816
0.822585
40.485003
75.164920
100.706757
116.809308
112.695281
104.945492
105.663348
112.362068
109.568769
84.618842
63.572535
59.109546
54.380451
37.465842
30.106897
32.492460
22.789985
15.469872
5.852162
1.082910
1.072241
1.061572
-5.772284
-1.216067
3.174216
-5.421909
3.007510
0.907938
-4.899315
0.842856
6.070428
-5.882478
-3.978838
-5.170955
-2.068300
3.012142
-3.987840
-3.557617
2.986780
-1.870648
1.474515
1.193382
2.013376
0.579479
0.263921
-0.013698
-0.294530
-0.109539
-0.860488
-0.210487
-1.950093
-0.979407
-0.349022
-2.113683
-1.397196
-2.604565
-4.030191
-0.584209
-1.979362
-7.926815
-2.301265
-5.858403
-4.412168
-0.854835
28.166923
66.165577
98.130699
115.783853
106.049866
101.347273
111.190323
111.477349
105.827107
75.165294
65.820448
48.553841
38.579638
26.218711
26.243492
16.225192
28.515403
13.667149
1.328715
3.746662
-3.520387
-1.094317
-15.161682
-1.049213
-10.035983
-5.370833
-9.449328
-9.145525
-4.833750
-2.743025
4.542946
-10.912161
-2.308114
-0.670122
4.746878
1.904160
-2.754718
-2.454413
-0.390904
1.109853
-0.268478
-0.212635
0.187628
-0.094504
0.197259
-0.050446
-0.689571
1.176062
-1.315491
-2.718186
1.440091
1.003637
-1.214316
-14.718283
-25.846510
-33.808897
-33.259476
-32.388205
-30.479321
-28.020408
-22.583504
-19.191736
-7.967195
-11.887061
23.503742
75.613934
97.742264
112.596511
111.628285
111.579673
110.664756
100.869589
105.267105
87.260571
75.513361
56.911660
32.649581
42.354292
37.501936
35.041849
32.429612
17.900668
20.202271
5.800525
5.725939
3.385149
-8.074963
3.262672
-16.539782
-3.275409
-3.178120
2.885032
0.872730
0.841789
-7.956586
4.056352
0.710560
-0.783659
-2.053887
4.181492
0.509981
2.426926
-2.173514
-3.986673
0.270994
0.677030
0.158969
-0.349521
0.229497
-0.056878
-0.471272
-0.869416
-1.988117
-0.695174
-1.403347
-4.386112
-5.084248
-2.159883
-7.291418
-2.650766
-2.910645
-3.135873
-6.055113
-2.136889
0.857730
-7.636985
-11.595120
-4.562320
24.440806
73.954532
95.594028
109.771700
112.385312
108.620095
106.941136
111.258551
106.236496
89.930772
68.170840
58.325807
41.100743
28.678193
26.070023
18.705063
18.598683
21.023984
1.328715
-3.530660
1.305741
-8.231016
-5.734664
-10.266454
-9.962651
-5.365058
-7.288471
-9.051241
-2.862883
-8.359827
-4.377518
-0.773217
3.993010
-0.673343
-0.613204
-4.217075
1.726439
-1.445139
3.023012
-1.023926
-0.267404
-1.592576
0.183799
-0.094504
-0.036513
-0.083140
-0.084960
-0.992823
-0.962047
0.714454
0.270994
-0.375345
-2.007235
-2.244777
-1.527804
-2.755494
0.541989
-1.971011
6.067649
0.662549
-0.850866
-0.913001
-2.724103
6.328744
31.358483
75.973145
111.778113
121.692697
110.907327
114.391956
114.996580
120.159618
112.481177
91.868236
63.819658
71.056310
59.280877
44.651321
1.103182
-30.315087
-44.513305
-51.664623
-51.211866
-41.416249
-41.170455
-36.005047
-39.818590
-30.296935
-12.063570
-11.739976
-7.255884
-5.024025
4.675992
-0.990352
0.795912
-0.890176
5.319697
2.085524
-0.710112
0.548390
-1.693556
2.392502
-0.455232
0.317938
2.570685
1.113058
0.820450
1.737830
0.527725
-0.273183
-0.956142
0.424356
-2.103556
-0.715721
-0.880097
-1.715201
-2.762631
-1.291037
-2.437088
-0.502591
-5.321795
-4.493338
-6.149397
-6.589387
-7.155090
-4.227365
0.982815
-2.736176
40.077467
76.507855
94.123139
101.631459
112.860514
113.888339
107.583425
109.296196
106.952928
82.390196
73.398633
51.134985
38.579638
33.647336
21.124385
26.243492
18.598683
-3.582028
-1.121165
11.009476
8.536053
-10.654065
-5.746214
-10.245502
-7.735367
-0.996591
-7.280345
-7.036584
-6.776572
-12.065602
-6.150917
-0.766774
-7.039854
-3.592105
-1.958815
-0.557361
0.603729
-0.454265
-2.941390
-1.732527
0.906743
-0.681476
0.878701
0.113598
0.373746
-0.180349
-0.689571
-1.230619
0.170705
-0.756695
-0.908034
-2.448964
-5.918389
-0.474253
-7.380371
0.487576
-1.823275
-0.689823
4.633545
-5.113040
-0.853402
-2.594383
-4.459861
4.469445
42.633854
90.226375
111.015122
119.442787
113.675241
107.722748
113.295102
113.040993
108.165501
87.260571
80.704978
54.328011
49.680746
39.582399
32.366764
34.974331
20.380003
13.137914
3.466801
10.511707
1.067974
3.371541
-1.233819
-1.209726
-1.179293
-1.146323
0.930343
2.871423
0.864195
-0.978940
-9.539540
-4.151056
2.231817
4.940295
1.915416
-0.642905
-1.675539
2.346602
1.204365
3.771894
0.819921
1.107321
-3.746701
-4.225734
-2.069625
1.372559
3.873630
5.512262
7.487489
6.812233
4.556589
3.192855
2.032370
1.378249
2.534485
1.682915
-1.743071
-3.210950
-3.389977
2.299500
-7.207470
-0.787178
-0.826913
1.018554
32.623958
82.716778
108.793714
112.549399
112.860514
106.226208
107.369328
109.831437
106.543539
82.705565
58.049119
51.086699
33.806501
28.813851
26.317836
23.776650
18.687333
11.223045
-3.568330
1.317228
-1.093243
-3.469019
-10.444546
1.243198
-12.249367
-9.648372
-5.168705
-0.931082
-4.810649
-6.467807
0.966222
2.596912
2.411936
-0.666900
-1.955390
-7.891966
-3.867684
-2.408212
-3.760875
-2.478243
1.482435
0.710886
0.854791
0.112322
0.112436
0.113013
-0.880175
-0.671058
-0.205425
-0.742282
0.864149
0.313671
-2.771632
-2.232900
-3.466608
2.633473
1.718091
-1.952994
0.614538
-5.129587
5.432710
-0.907929
-4.453923
6.304527
39.075817
83.974295
109.475765
104.402418
115.842087
112.168795
117.876585
113.380456
112.370358
82.071288
75.513361
49.537436
42.231998
27.770170
32.429612
20.360255
34.636741
17.813603
1.085044
-1.273129
3.402160
-5.902932
-1.223675
-1.204654
3.146998
-1.146323
-3.138483
-8.932594
-1.027126
4.452233
-2.666450
-2.511507
-5.377793
-3.563138
4.455952
0.543056
2.639210
1.377875
0.365949
0.309403
0.250723
1.485317
0.757339
-0.263042
-0.136587
-0.359144
-0.438907
-0.131017
0.224644
-2.325666
-0.283513
-3.216124
-2.835760
-4.075154
-1.469111
-4.955136
-6.618506
-5.824641
-4.818354
-5.192121
-12.164048
-4.267791
-9.940585
2.912458
38.448028
107.940501
163.181280
176.631146
175.155509
160.027021
169.337977
155.955122
140.664238
119.918739
100.632393
73.329193
51.134985
41.334049
31.310176
23.776650
26.094804
6.282416
8.644315
-8.401649
3.728527
-5.838615
-10.402642
-3.338888
-7.735367
1.176826
-5.168705
-7.028459
-4.816424
-2.729327
-0.815100
-4.123414
-5.411507
0.782423
-1.924570
-0.550917
-1.612940
0.524594
-0.376943
1.769358
-1.990719
-2.000911
0.173588
-0.280809
0.161394
0.024539
-0.409761
0.126962
-0.979863
-2.291497
-1.520272
-1.799385
-1.250349
0.409692
0.451302
1.585407
-3.034606
1.867786
-4.831740
-2.266482
-4.044162
-0.916805
-8.030847
2.670696
37.347557
88.034029
103.921089
114.830075
105.346511
106.164500
108.270059
105.936379
98.066749
94.441179
73.610870
42.028176
51.858883
34.974331
30.019631
27.582895
10.699045
13.035971
3.453193
3.436182
-3.614120
1.051970
-5.742591
3.215041
0.985822
7.265140
-3.138483
0.896202
0.863128
-2.781756
-4.376722
7.243711
-2.338548
3.459661
3.155578
4.068478
0.489710
2.289228
0.361681
-1.037753
1.864719
1.428811
0.435477
0.790980
-0.157197
-0.243762
-0.270536
-1.299021
-0.993315
-0.753390
-3.360559
0.388021
-3.677067
-2.252285
-4.525621
-6.028484
-4.192699
-7.182875
-10.393776
-6.736051
-7.249374
-2.544404
-4.498794
8.585470
46.428228
87.597119
105.503922
113.155155
98.355755
106.773201
109.617570
112.243140
101.356978
87.804186
58.436482
51.134985
41.100743
41.139627
33.679169
13.745322
18.705063
11.180332
-6.006093
-5.971442
1.303188
-3.455321
-3.397105
-3.325190
-12.223714
-13.977887
-15.564372
-15.073604
-10.581914
-8.286495
-2.575225
19.263498
38.247254
39.750138
37.637454
29.709406
25.953324
18.787626
12.713744
7.186603
2.562827
2.384260
2.091589
0.616261
0.443248
-0.148464
-0.785050
-0.730443
-0.626976
-0.789125
0.278463
-0.385489
-2.072559
-5.912972
-0.538924
-1.689953
1.741906
0.591066
-2.107937
2.153567
-0.872423
-0.920609
-2.752929
2.674098
52.767585
91.075564
96.333730
115.338735
111.868604
112.993566
108.713335
108.917866
105.786173
85.198423
46.934339
51.708568
37.501936
39.582399
37.177088
32.555308
15.500028
3.487214
17.761364
-6.009827
1.066907
3.354530
-10.279909
-7.876398
-3.340269
-1.136179
-1.099405
-3.019574
4.618618
2.595848
5.884763
-0.869887
3.683420
0.636943
-1.978217
0.532386
-1.625093
-0.500882
1.939246
-0.360128
0.785899
0.591976
0.435477
0.071483
0.103273
-0.109584
0.297412
-0.762312
1.052051
0.287186
-0.285661
-2.559496
0.448011
2.325271
-3.502041
-1.633487
-6.695465
-0.602465
-2.047852
0.820715
-5.695895
-6.045287
-8.181735
4.817913
60.448116
79.723549
112.263061
104.373630
102.659208
103.127132
105.639874
114.878042
99.298251
78.145044
68.300319
55.901274
31.251211
28.705324
21.204706
23.709358
13.680178
6.252528
1.326163
-3.537509
-8.296019
-1.082504
-1.067469
-12.454592
-9.920747
-5.313082
-9.271237
-4.949251
-6.679067
1.001961
-2.561527
-4.094538
-3.805784
-2.092370
-1.924570
-7.785728
0.590966
1.468924
0.440352
1.051822
0.299950
1.099871
-0.452034
0.632917
-0.082188
0.154910
-0.096372
0.133363
0.578367
0.741671
-1.555904
0.322206
1.173745
1.306430
2.449876
-3.855464
-17.455521
-36.792045
-43.089770
-45.361277
-44.121663
-39.912989
-38.232827
-15.700032
29.741670
74.872195
100.254574
111.470333
96.858194
106.275319
111.230527
111.372988
98.260366
72.970775
56.583007
51.808778
51.908989
39.620828
32.492460
25.224385
20.301011
8.266114
-1.288346
5.766101
3.395356
1.049836
-3.469988
-7.835031
-3.315046
-1.137447
4.951388
4.773528
2.738739
-0.972600
-0.920609
0.729764
2.163774
0.629475
-0.684751
-2.939589
3.600280
1.323440
-1.203506
-2.266947
0.242188
2.191776
0.659803
0.532777
0.064579
-0.213678
-0.301356
-1.424732
-1.875199
-1.334046
-4.837575
-4.066020
-2.055932
-3.217653
-4.588476
-2.800918
-3.031922
2.056493
-6.264632
-3.748033
-7.396037
-4.331317
-4.516120
6.745564
52.593970
98.786177
110.489830
111.672509
114.048520
98.496760
112.754810
112.571336
106.338844
82.390196
53.826805
46.243919
38.725773
26.367399
21.305107
11.287116
13.732293
6.264483
-8.458526
-3.534085
-10.737873
-10.538830
-5.717338
-14.645668
-5.457459
-3.143692
-0.951487
-4.943476
-8.632202
0.998132
-2.558102
-0.753887
10.027323
-3.476604
-5.772262
-2.927970
-3.737677
-2.298485
2.050303
1.026433
-0.247000
-1.039516
0.759150
0.424407
0.089663
-0.184095
-0.102713
-0.164847
-0.634183
0.237920
-2.192485
-1.113423
-0.442552
-3.218402
1.479940
-1.711572
-4.277414
-2.017854
-0.753226
0.680687
0.738300
-9.435990
-6.329249
13.756350
51.154576
101.211129
102.208120
109.946051
108.213568
97.520800
118.477383
116.066848
108.165501
80.236217
65.975511
58.995324
47.025209
32.649581
32.461036
32.429612
32.366764
17.761364
10.522115
8.120812
-19.909317
-58.513497
-82.176078
-64.986234
-61.386728
-49.039099
-41.447029
-28.322771
-17.872144
-22.436094
-19.515193
-16.839890
-12.647803
-4.856561
-4.451158
-2.927712
3.559918
-2.286347
1.122713
-1.621228
1.759778
1.380377
0.377640
0.200727
0.013609
-0.143829
-1.180044
-0.489704
-1.085717
-0.248074
-0.948587
-2.600123
-2.090582
-0.427417
-3.607671
-3.957063
-0.569174
-1.938268
-6.327488
2.375667
-2.421122
0.959841
-2.684809
6.778875
63.168480
83.955623
110.610981
105.044124
100.719087
102.813039
117.731198
105.520066
89.243622
82.942092
56.219196
48.599777
33.806501
23.776650
28.786720
16.302089
18.775983
3.804693
-8.466652
-5.977217
-8.255392
-5.827065
-5.676913
3.503655
-12.095448
-5.289982
-3.030683
-0.919269
-2.811515
-6.362177
-11.321936
-8.978593
-2.222501
2.172556
-1.866353
-2.887545
-1.575270
-3.209527
-3.509451
-0.965709
-0.773937
1.040095
-0.693011
-0.552526
0.019146
0.119076
-0.107785
-1.083832
-1.057064
-1.886364
-0.343643
-3.341766
-2.912282
3.180517
-3.640352
1.639841
-3.088053
-4.633175
-0.755762
-6.832055
-4.139179
0.785243
-4.537063
19.388346
55.154418
87.474432
109.632910
103.422891
110.990551
110.985314
118.597543
113.719918
103.102115
92.317249
68.776895
56.637783
47.025209
35.075608
30.019631
37.249276
17.970321
10.667822
5.834950
-3.628534
-3.588897
-8.141151
-5.701021
-1.195778
-7.586825
-5.309076
0.920741
0.885533
4.578456
-6.287881
2.456360
-5.609452
-3.741295
0.617739
4.302577
-0.618812
1.496951
2.168742
1.818760
2.139180
-1.753988
0.923724
0.608166
-0.634243
0.045936
3.119453
6.473964
8.885692
10.332463
9.293356
7.037915
3.481173
3.897632
2.432867
4.826657
4.122289
-1.832108
-3.314901
-6.442724
-2.260171
-4.111863
-6.126541
-6.386553
14.485343
55.222912
88.697083
100.099876
111.910110
110.220268
105.763605
113.090057
105.622413
92.215349
75.380667
58.270469
48.507906
36.199966
26.268274
26.144367
11.233724
6.312303
-1.123313
-8.426025
-5.959892
-5.896366
-8.198514
-12.634163
-12.428938
-9.857891
-9.554088
-13.446697
-8.936006
-8.611250
-13.706463
-2.537555
-4.031012
-2.219077
0.763277
-3.164749
1.824367
-3.697050
0.497790
-1.940430
-1.628575
-2.388522
-0.606137
-0.126722
-0.075174
0.043524
-0.133322
-0.486962
0.452487
1.015522
-0.803538
-1.603412
-4.705931
-0.443820
-2.321978
-3.590711
-0.607399
0.553725
-0.710112
0.635876
-2.313325
-0.880031
-0.930754
-4.566756
13.878242
63.134595
91.606308
113.049764
116.483221
107.867100
113.347038
120.657448
111.594626
103.609507
73.041897
61.407341
49.489666
34.873054
25.273222
32.523884
29.961453
22.701652
8.258042
5.800525
-1.273129
-3.588897
1.039167
-3.462781
-7.752295
-3.307839
5.083349
-1.087993
-4.929008
-4.738974
2.599250
2.432545
2.289654
-0.796340
0.617739
0.563327
1.643243
2.512987
-0.475521
4.026751
-0.954877
0.704247
0.171772
-0.374744
0.056546
0.000000
-0.422520
-0.560184
-0.158939
0.242513
-0.256665
-2.996128
-0.345800
-0.393052
0.514383
-3.656423
-5.154179
-5.625598
-10.095809
-4.956485
-3.823109
-7.448417
-9.696881
-10.081678
16.385455
67.410160
88.897076
97.949088
103.381839
98.662796
98.896747
101.296668
98.154701
104.396567
107.464664
127.935593
124.135961
103.798139
88.890251
81.463976
66.194783
56.007248
35.892318
18.439114
6.174820
-13.121573
-8.166012
-12.646990
-10.098839
-5.428584
-7.418477
-11.300201
-8.883626
-6.622189
-6.337801
0.940695
4.184292
-5.273375
-6.264632
-3.164749
-5.279891
-1.541025
3.247864
-2.697628
-0.296400
0.284634
-1.413817
0.150613
0.081689
0.085428
-0.243481
-0.522594
-0.807645
0.195244
-0.810745
-1.609351
1.061474
-2.078497
2.249066
-1.574647
-5.060389
-3.111807
-2.021457
-3.539384
2.187589
0.746835
-4.376722
2.606055
19.486021
67.346734
91.712457
100.594037
105.672802
104.391398
115.593552
114.219017
109.460286
98.453982
75.219535
68.710444
51.858883
44.478922
34.940572
32.492460
25.175548
20.360255
8.233825
3.449791
-1.273129
1.057305
-1.238892
-3.437558
5.375957
5.215309
7.127909
4.888277
-1.047415
2.691109
-4.495493
-2.565557
2.276045
-0.786195
0.615605
4.237998
3.866669
-0.545264
6.408021
2.526654
2.653946
2.143972
0.900774
0.347020
0.547944
0.006382
-0.607606
-1.120929
-2.664172
-2.095195
-3.142508
-4.401289
-2.697628
-3.876110
-1.404045
-3.705176
-8.746196
-3.141648
-3.338002
-2.112917
-5.427758
-7.511273
-15.087207
-6.410929
20.271177
67.410160
103.524268
109.058897
110.045481
106.007410
106.619991
101.996645
108.466709
95.124689
72.912550
55.689326
43.708710
43.791180
33.774668
11.340508
8.844184
18.669603
1.335097
-10.915965
1.313399
-10.664541
-8.141636
-1.061026
-10.077887
-1.010552
-7.353474
-3.006712
-8.925530
-14.197232
-6.272798
-7.710317
-12.076411
0.821991
3.550671
14.651111
31.981382
29.003358
23.234885
17.432720
14.885808
11.140073
6.137670
2.775516
0.576636
0.134585
-0.380582
-0.986617
-0.843276
-1.538876
-2.450628
-1.001720
-2.647529
-4.685636
-3.359052
-0.565553
-0.612471
0.567594
-4.682817
-0.762102
0.696690
-4.192626
0.793779
4.435021
30.705181
73.210313
99.898332
114.194250
110.066210
113.911318
109.533215
112.248914
114.172535
98.647599
82.634523
59.052435
49.489666
44.737520
32.461036
34.940572
20.419499
25.053455
10.657414
1.082910
8.112739
3.368139
1.038100
1.022097
-5.552557
0.971952
3.007510
0.911138
0.875930
0.838589
0.798046
0.759638
0.710560
5.012946
0.609204
1.765721
-0.602327
-1.542217
-0.462841
0.326473
1.468778
0.212314
0.510324
0.988725
0.468343
-0.094284
-0.618082
0.402594
-0.530798
-2.552486
-2.047597
-2.364487
0.418654
-0.401643
-3.363910
-3.737677
-7.603606
-4.412084
-4.712724
-9.424829
-8.619450
-2.475914
-6.215920
2.887070
20.469428
78.183435
100.127165
103.032641
106.049866
103.836738
108.632981
120.938951
106.031802
92.656571
65.882838
45.982408
43.667476
33.679169
41.100743
36.199966
36.097416
11.212367
-3.582028
-1.116869
-8.336646
-3.489566
-12.865042
-14.934029
-5.561411
-14.235893
-15.879867
-15.318988
-4.874175
-4.660497
-6.232171
-4.238915
-10.472032
-5.167745
-2.017031
-1.825259
-1.681430
-1.510205
-0.408087
0.410996
0.342071
1.782161
-0.177196
0.627644
0.199483
0.000000
-0.180166
0.330010
-1.191388
0.205913
-1.407440
-3.012894
0.345678
-1.297192
1.377875
1.524168
-2.903958
6.830186
0.610271
4.851499
0.705225
2.412132
0.794846
-15.520489
-12.330152
18.616238
35.424331
59.805996
59.115084
74.064201
80.478977
98.449204
95.701138
79.845583
68.776895
58.938213
51.608357
34.873054
37.285371
22.767902
15.545261
17.831016
15.273860
5.812000
5.771838
-1.255376
-1.233819
1.019963
0.996491
-3.293426
-3.167310
-3.059210
-1.041075
-4.638018
2.534609
2.418936
6.931482
3.551459
4.585110
2.966243
2.713797
1.432309
0.384086
1.030855
0.853942
-0.252343
1.194712
0.312999
0.395490
-0.016109
-0.859380
-1.423748
-1.300062
-1.201219
-2.055723
-1.013652
-3.540879
-4.809961
-2.408212
-2.639216
-5.300843
-5.751310
-1.989635
0.793911
-7.081758
-2.472490
-4.412168
1.016001
26.293945
74.384001
106.326484
111.459039
110.511282
103.622642
102.142605
99.404050
110.687822
96.755993
65.695670
63.640770
48.645712
33.774668
26.293055
23.731789
23.686927
16.225192
6.270460
1.324886
-13.237012
-10.612161
5.947672
-1.054582
-5.538310
-3.212182
-3.092324
1.123218
-4.903051
2.948728
-6.297174
-4.215815
-0.735630
-8.170520
-6.138921
-6.849384
-2.847119
2.618171
-1.291037
-1.112963
-0.907493
-0.227670
-0.179343
-0.612159
-0.184923
0.000000
0.050145
0.098155
-0.187672
0.649813
1.872792
0.952605
1.847447
1.221376
-3.325958
0.472640
0.518517
-3.147439
3.247376
-3.610647
-3.931329
0.757504
-4.436107
2.640076
38.502578
75.613934
104.779187
114.321415
119.528816
109.021994
116.074191
109.710705
109.894221
93.888352
78.141377
64.005001
56.473456
25.297641
30.019631
39.659258
29.932364
20.162775
5.834950
10.490892
-1.273129
7.999726
-21.749642
-45.620514
-57.891224
-64.547101
-50.262468
-46.510177
-29.544464
-28.383011
-23.529144
-10.710578
-7.001795
-2.198019
-2.039474
1.741906
3.785945
3.333892
0.372350
-1.066580
2.508239
1.533752
1.130133
0.678080
0.234099
-0.178758
-0.078396
-1.257117
-2.142036
-0.229817
-2.692325
-2.486368
-4.450817
-3.136399
-2.460188
-2.685416
-0.547696
-1.897174
-7.554845
0.802845
-8.773368
-5.939657
-8.066500
-2.732752
30.359544
72.348644
96.664510
101.193864
106.385113
93.008727
104.802293
102.496629
101.161686
92.480083
58.215132
53.522985
51.038413
31.133282
38.652705
28.678193
18.687333
18.669603
8.677626
-3.537509
-5.959892
-8.279768
-3.424501
-7.971003
-5.555636
-9.815987
-9.459804
-7.093462
-14.810692
-8.454111
-8.045548
-2.493037
4.052786
-8.106387
-0.630387
-3.072347
1.769962
-2.483288
0.473538
3.385067
0.331860
4.176684
-0.170752
-0.339026
0.166841
-0.007207
-0.190975
-0.131878
0.500118
-0.248539
-5.392841
-1.674675
-0.408314
-0.465377
0.434231
-2.660477
-4.045755
-1.924168
-0.721524
0.654014
-3.931329
5.763677
-4.430169
4.446496
40.585213
83.478579
105.259825
114.575745
106.365738
113.911318
121.334600
112.814685
107.422461
98.647599
70.437232
63.819658
46.979774
32.335340
30.048719
22.789985
29.874187
10.615784
3.459997
-13.060238
1.069041
-5.873240
-3.488004
-3.419542
-5.505049
-1.143787
-1.109550
-3.044797
0.872730
-0.987816
-2.670053
-7.394320
5.295480
0.645479
0.598535
2.937556
3.761728
3.317747
-1.253952
3.708179
-1.419317
1.517607
1.733032
0.678080
0.301821
-0.457188
-0.754270
-0.942545
-1.348814
-5.816711
-4.574664
-1.761402
7.738627
19.545764
27.773305
31.532270
29.709406
23.008925
21.554911
20.182035
18.558074
7.859335
-2.643715
6.670613
40.318898
85.147674
102.347392
116.916521
112.741714
99.890964
102.859036
112.352539
94.309334
85.496104
68.106100
41.139627
38.835374
21.285027
28.759588
18.811442
13.823494
13.719264
16.056020
6.216662
-3.523811
-10.622637
-10.486450
-1.051361
-12.287846
-7.556609
-15.774702
-2.982740
-8.736962
1.024936
-7.972216
-2.475914
2.455460
-8.093561
2.085509
1.911414
-2.795143
-2.471738
-2.982016
-1.051322
-0.274922
-0.218004
-0.162161
0.119980
0.145079
-0.050446
0.190521
0.118427
-0.196549
1.164695
-1.472764
-1.041357
1.122713
-3.052932
1.411897
-2.713924
4.036189
-0.688555
-3.414674
0.657215
-2.414218
-4.240135
-6.205146
6.296454
40.735529
78.132800
107.305508
110.000395
104.554432
103.276702
105.663348
112.701530
112.591996
84.867234
63.881439
54.170690
39.812976
32.586732
42.191234
27.663156
27.529388
