88.352865
20.180728
-2.156438
4.526515
3.722523
0.244325
0.169116
0.186618
-0.353467
0.287521
0.404925
0.001085
0.622961
1.459934
18.863206
43.376812
59.907403
69.002417
78.477581
85.538021
101.088392
116.064858
121.535438
118.382111
113.698615
118.293996
108.489115
99.700425
99.502228
98.545844
102.598522
102.835227
91.239916
104.150543
97.979751
84.928070
75.273646
66.422542
74.953210
60.655778
56.036362
59.608134
53.358339
51.082073
46.158985
35.191949
34.718188
36.554144
33.206695
31.848389
31.786014
29.007537
23.240460
19.209163
15.173186
12.203499
5.355877
0.765155
-1.382293
-3.876431
-6.271674
-8.243951
-10.653407
-19.106025
-23.948123
-26.486793
-29.222904
-31.441776
-33.853503
-31.338631
-32.796169
-33.898470
-28.786402
-30.781943
-30.088724
-31.264064
-21.420280
-19.535327
-27.550603
-16.503348
-26.530750
-19.803623
-17.093634
-12.658316
46.921526
102.007161
129.977846
138.091520
137.611938
146.430738
142.832044
134.941432
142.603823
138.062411
148.519612
142.857223
134.254586
130.674634
112.747452
103.947282
89.266105
74.316988
56.704990
59.903736
47.333424
44.503679
47.020845
22.249231
16.958179
14.436338
9.519264
-4.677609
-2.299015
-4.456435
-12.993381
-6.287281
-2.032838
-3.905851
-7.487988
5.327164
-1.670083
-3.124681
2.902082
-4.050392
4.914684
5.556519
2.931349
-1.684692
-0.713731
-0.001235
2.337732
-0.348621
-0.000461
-0.000203
-0.066872
0.000283
-0.267223
-1.852121
-0.484341
-1.791885
-1.413868
-3.230774
-1.800771
-1.018786
-4.463820
0.002558
0.002795
-11.339199
-3.042682
14.764642
64.492253
103.848317
118.442234
122.296425
127.632996
134.198291
129.971289
130.215397
128.804988
136.039727
120.743224
116.487614
98.317226
69.693890
76.567579
54.602755
54.970982
40.095053
44.848264
34.581755
27.093560
21.953259
12.019052
2.381630
0.004939
6.912058
0.004712
-2.144939
-4.131742
4.016016
3.829336
1.820964
1.729916
1.619700
10.245419
6.733061
3.624704
3.237111
4.711947
8.917201
6.480549
3.998555
2.869776
2.066189
1.212356
-0.284463
-2.080477
-3.046772
-5.754731
-4.210716
-6.798815
-7.059852
-7.499586
-8.322425
-11.030443
-7.993736
-7.587231
-11.731328
-12.483637
-10.758628
-9.973670
-9.029059
-3.223503
18.974152
32.616289
60.318710
92.019615
105.475931
123.419518
128.331761
125.264504
112.818430
125.910495
125.318095
119.987101
105.108594
88.843043
74.246479
59.621703
54.704574
29.921188
29.977590
19.832808
17.303593
14.774689
4.855586
7.222676
-2.397948
-11.804346
4.630182
-2.277815
-8.870820
-0.004553
-10.440498
-8.108852
3.878834
-9.276523
5.298978
-3.336444
-3.110563
-1.458084
2.648502
-0.002574
-3.372975
-0.979908
0.828007
0.708380
-0.579465
-0.931757
-0.000719
0.417937
-0.094222
0.000076
0.000303
-0.264837
-1.146807
0.481597
0.594209
-1.385208
-5.588084
0.903294
-4.043246
1.118935
-4.884394
-3.927812
0.002966
-1.534144
-9.880347
0.003698
-5.504672
19.011206
57.968192
80.193594
100.013893
107.198460
115.999304
110.749308
110.801909
108.669471
105.176585
81.349192
71.905521
44.848264
40.018536
37.410297
29.900595
17.510961
12.425667
24.702611
17.109180
7.278118
-2.388302
0.004974
0.004858
-11.256114
-6.608473
8.468204
-2.044730
-1.958837
1.873676
3.561282
3.350669
0.003289
-1.441093
9.157262
3.595993
5.369706
2.827987
3.982432
1.297188
3.099647
1.148421
0.000550
0.621881
0.000000
-0.352822
-1.152217
-0.994957
-3.159975
-2.762970
-3.921998
-5.943578
-1.679986
-5.586730
-2.037631
-1.109463
-6.019746
-9.101386
-2.767036
-8.775117
-11.026995
-5.087688
-0.003764
-3.731735
11.532153
42.001154
78.685023
91.565756
93.688141
110.216359
115.286333
115.629284
110.711948
97.493019
76.138768
54.290929
42.110767
42.190673
27.297963
24.792242
29.695581
14.802885
9.782382
12.182051
38.580371
52.481231
59.109662
62.442676
27.326703
24.428574
17.125771
4.165285
6.003629
7.733814
3.681605
3.507856
3.305931
6.145704
-1.439240
-2.630567
2.418401
4.388446
-2.907250
1.624790
-1.383518
-0.001190
-0.449910
-0.000660
0.375674
-0.063600
-0.172053
-0.162242
-0.549307
-0.381747
0.507953
-3.047037
0.001493
-0.818369
-0.911420
-1.016400
-3.361577
-1.226361
-6.631787
-1.407690
0.003234
-1.658212
-1.767964
-3.677967
0.004051
39.883702
74.541624
87.540781
96.049951
105.632652
103.720169
120.475443
115.339953
102.931474
76.715823
64.467549
42.397532
40.018536
22.512851
22.491329
14.938575
12.401748
4.920697
4.882403
-4.838676
0.005050
-2.342970
-4.633283
0.004803
-8.774705
-10.718402
-6.128248
0.004187
-1.896803
-3.596765
1.698768
1.590948
0.003087
4.076894
-2.464715
0.002351
2.964362
0.001746
0.685258
0.555873
0.852027
0.306689
0.516789
0.071800
-0.159999
-0.952343
-1.493179
0.401102
-3.117847
-4.229758
-2.869141
-3.273643
-3.612296
-2.991927
-5.467152
-4.712917
-1.286129
-6.866273
-4.389101
-9.424081
-11.833447
-8.865017
-0.003928
-13.479267
25.907441
70.082418
82.589169
98.363162
105.054806
112.519732
113.382405
98.388440
92.528586
78.594827
61.753732
47.154807
39.595644
32.200994
27.168711
24.721742
17.303593
7.328374
-0.005128
12.029335
-9.548126
-11.710288
-6.922360
-6.795344
-0.004672
-12.894625
-6.202604
-10.040749
-5.758049
-7.375104
-5.249986
-0.003467
-6.171006
-0.002996
1.301824
-1.196618
-3.253015
-1.877632
-4.009245
-0.673687
-2.191836
-0.433421
-0.597642
-0.714934
0.216133
0.298981
0.000368
0.882849
-1.196979
-9.720123
-14.745464
-16.770328
-20.559609
-22.261634
-14.323843
-7.913664
-9.943311
-8.044811
-11.300955
-3.100001
-10.066769
-10.597354
-11.127938
0.004056
21.990501
66.336362
85.214639
100.415575
110.596006
111.667437
108.884358
113.611288
98.125948
76.419336
57.029578
52.321789
37.410297
22.448283
22.405237
7.486269
17.393775
2.467886
2.453510
9.721689
0.005040
-4.704931
-2.307181
-11.291962
0.004656
2.151613
-8.268104
-9.941706
-7.589451
-10.841136
0.003597
3.202282
-5.926271
-4.085498
-7.442526
2.244948
1.986468
0.001781
2.803597
1.736987
-1.816115
0.983335
0.794193
0.334859
-0.413793
-0.846527
-0.853828
-1.939957
-2.031916
-1.813503
-2.793885
-4.021002
-6.270575
0.985164
-3.253015
-2.357628
-0.002718
-8.196693
-4.382045
-7.830373
-0.003551
-0.003754
1.841318
-0.004037
25.907441
59.911919
82.589169
98.363162
98.865937
110.561947
104.346999
110.711948
105.108594
88.419981
56.921215
49.543019
42.190673
29.582777
29.780184
17.303593
9.829368
14.676003
-2.433281
7.236769
-0.005029
4.677141
-4.607022
-13.501265
-4.399964
-6.400184
-4.159966
-13.989471
-3.854086
-7.299848
-3.468207
-1.637106
-3.039975
-5.644212
-3.888094
-4.759952
-2.150571
-0.923375
-1.595281
-2.596338
-0.534709
0.835875
-0.578819
0.479163
0.079831
0.236862
0.196472
0.000636
1.248908
-0.522516
1.873362
-0.737248
-0.839842
-4.731870
-2.092142
-1.140468
3.753901
-2.698768
0.003017
0.003294
3.365029
-1.777507
-3.716179
5.813881
34.105014
80.939580
97.775954
107.549930
113.570360
118.280547
126.086732
118.562668
114.285539
66.494762
17.377034
-24.955125
-39.931485
-42.346369
-37.435631
-34.738667
-24.859512
-22.136581
-9.749672
-7.260719
-2.383530
-2.340584
-9.223954
-9.023226
-2.197429
-2.128237
-2.056660
-5.970562
-3.811711
0.003809
3.412896
-3.200309
5.961233
1.368119
3.725190
1.138103
3.028960
4.293373
1.412068
1.158374
2.260299
2.678458
0.203660
0.631351
-0.296248
-0.479837
-1.363849
-0.776464
-2.962660
-1.185873
-0.692531
-4.740256
-7.128531
-3.903914
-6.461421
-5.878659
-5.098605
-2.729390
-8.704578
-4.706640
-3.374090
-0.003745
3.672213
-7.723164
25.876890
65.959487
91.363624
96.177115
92.221094
99.549967
104.140166
96.740903
97.587033
81.128753
64.163093
39.670849
32.109341
27.323813
22.249231
22.249231
2.451182
4.902546
-2.428570
-2.416792
-4.771726
-7.028207
-2.306081
-2.256615
-17.642645
2.120448
-0.004345
-9.993719
-7.666722
-5.454622
-5.207647
-1.630039
-0.003209
-4.198577
-3.838699
-5.925688
3.192070
-0.001944
0.776403
-0.001384
2.104951
-0.832934
-0.889110
0.500302
-0.178733
0.079068
-0.764680
-0.314941
0.837667
0.524725
-1.265794
-2.200435
0.001786
0.001978
-1.045031
-1.140468
-2.488598
-5.410112
-1.431550
0.003279
0.003557
-8.866281
0.003905
0.004066
34.105014
68.724681
74.897912
107.198460
105.857402
115.961315
121.450953
108.884659
100.774829
76.641701
54.550151
44.934345
34.782617
37.374429
19.916247
19.858852
14.866824
9.836512
2.441530
-9.673204
0.005050
-2.345355
-2.304795
-6.758991
2.204325
-4.255933
-14.371749
0.004192
-1.889645
3.623509
0.003562
4.809013
-1.472110
1.353743
2.474708
0.002361
2.993072
0.852978
-9.939676
-14.403680
-11.561252
-7.422932
-4.016216
-0.932279
0.507587
0.514395
0.838535
0.784219
-1.488907
-0.598309
-0.699598
1.601310
-5.375112
-4.938073
-6.560176
-9.479630
-5.164454
-6.842759
-7.313051
-4.734866
-6.801276
-1.792572
-3.703499
1.928107
32.037501
72.308152
85.365151
97.211277
99.486435
106.171028
109.090191
108.834079
93.332405
73.964441
52.020231
39.595644
27.375514
22.333828
24.792242
14.831081
2.460564
4.879066
-4.870549
-0.005079
-9.529312
-14.093797
4.583223
-6.738893
-4.395259
-6.386071
2.054771
-0.004201
-1.900927
-7.281034
-6.923567
-8.147821
-4.494947
1.388612
3.776931
4.642168
2.094383
2.719954
0.755292
1.895512
0.509001
1.162675
0.262710
0.136046
-0.014133
0.215400
-0.463328
-0.974786
-0.439009
0.001140
0.001377
0.764326
0.001801
-3.842518
0.002250
-2.326195
0.002694
0.002871
-4.379368
-4.744912
-3.396148
-3.568105
-1.851471
3.886776
34.470860
70.725914
94.261508
103.609899
104.045054
107.784516
112.150411
118.914138
91.032275
78.960929
57.194562
54.707962
42.397532
32.516011
19.858852
17.377034
17.310071
9.836512
0.005156
-2.412161
-7.189044
-7.024190
-6.902342
-4.475656
2.194741
-8.497508
-4.103082
0.004187
-3.768722
-1.794209
3.384176
0.003355
1.468752
1.351347
-1.226361
2.230588
2.971539
0.845790
2.103046
1.744164
1.770189
0.330649
0.402080
0.062296
-0.044755
-1.001661
-1.974984
-2.398344
-2.003695
-1.834672
-3.550710
-3.217201
-1.802338
-5.939428
-5.514182
-4.778766
-2.592920
-6.866273
-4.410270
-3.195268
-6.848311
25.071184
42.704425
58.381847
84.599070
118.565868
135.044752
123.461570
124.229965
125.398204
121.308224
108.939846
103.058844
76.357348
64.285308
44.715198
39.783657
34.777220
29.808385
12.370010
14.718297
-7.352803
7.286095
-12.110037
-2.386170
-4.705844
2.286988
-2.261326
4.385994
-4.263495
-6.174378
-1.983371
-3.825851
-3.618794
3.428025
-8.030248
1.496511
-2.785860
-6.407738
-2.357628
-0.002212
-1.783515
1.521480
0.628628
0.506656
-0.391021
0.260365
0.133701
-0.009407
-0.109752
0.000464
0.679707
-1.340330
-0.553533
-1.971074
-3.001370
-1.700463
0.002023
-2.101695
-3.469090
-2.522034
-2.689215
-2.870725
-1.567547
-5.074619
5.354513
-1.853857
0.004066
34.226963
76.966063
98.875796
96.891572
110.830320
111.782203
111.925661
101.726423
90.236074
71.420141
54.655359
49.782895
32.453839
34.816094
27.330300
22.233055
12.377830
14.737672
-2.438406
4.815390
0.004999
-4.671495
-4.561634
-11.196369
-8.726912
-6.336106
-12.217788
3.949003
-3.787828
3.590002
-3.386595
3.159202
-2.956703
-1.348043
6.123139
0.002361
-1.972728
0.831414
3.480143
-2.843902
-0.443780
0.961803
0.373360
0.334859
-0.000109
-0.696120
-0.559995
-0.395732
-2.539581
-3.021630
-2.822106
-0.807953
-4.491295
-1.999984
-2.192923
-5.984474
-6.478282
-6.901545
-1.472217
-4.798374
-3.411737
-1.792572
-11.229893
3.874138
26.151851
70.961445
83.780800
108.143324
106.601355
107.035966
104.864080
97.210976
90.963309
64.101985
49.543019
49.637028
29.751983
34.711416
27.272112
17.320041
12.311273
2.439454
4.850890
-12.015978
-9.529312
-9.359986
-13.797531
-4.484670
-13.190891
-12.739438
6.137513
41.606314
41.571340
43.376622
35.634352
20.835937
11.880886
6.836985
8.799831
2.291611
1.015657
0.874919
1.479216
1.810954
0.972056
1.113349
0.746930
0.110245
-0.019117
-0.243606
-0.472881
0.713214
-1.390503
-0.575006
-0.668056
-5.454238
-3.546204
-0.966296
-4.320443
-1.183414
0.002714
0.002881
-2.951927
-1.589020
-10.281871
-3.606318
0.003955
3.910709
46.470582
79.681943
90.077592
97.417585
109.257348
112.126502
117.625413
99.500439
100.382709
69.493043
54.707962
34.782617
37.482033
37.338561
22.383715
7.450381
17.293330
2.458302
2.431946
-7.246384
-7.146038
-4.666719
-4.585517
-6.737489
-4.370571
-8.440157
-10.180689
1.971913
-9.380095
-1.789437
-6.710068
4.701348
2.919869
-1.333727
2.436415
0.002351
1.967321
-0.825527
0.001448
0.001216
0.000908
-0.322099
-0.755122
0.172263
-0.197580
-0.000382
-0.000640
-1.227819
-0.520576
-0.617154
-1.435282
-1.647045
-5.473867
-4.026205
-4.421300
-4.806988
-3.916320
-5.503107
-4.459665
-12.827595
-6.876532
-3.604677
-5.623977
3.902314
42.494705
75.305056
94.625871
101.413874
113.641064
119.270437
102.986209
111.685002
85.716831
71.567139
44.588286
39.708452
22.376127
22.312679
22.333828
17.352938
9.848162
12.217294
-4.861137
4.808627
-9.510498
-11.698530
-2.303726
-8.955484
-6.555426
4.221637
6.130466
-1.971594
-1.886794
-10.792548
-0.003571
-0.003373
-2.978799
-0.002882
-3.782248
-3.436483
-1.017597
3.411148
2.922498
-0.593598
-1.956660
-1.093747
-0.903074
-0.221175
0.021564
-0.135997
0.253977
0.357005
0.000974
1.139227
2.679206
-1.547612
-12.181960
-22.543719
-32.202512
-36.388736
-29.471789
-24.570399
-16.223606
-20.789819
-13.672053
-5.411493
-11.271340
1.957537
38.661972
75.230231
81.499091
97.627990
104.375006
114.579337
107.593536
111.413995
86.279047
62.047899
57.249557
44.891304
37.230957
27.225082
24.917832
17.360293
17.259848
0.005166
4.853683
7.235052
2.367254
0.004904
-11.423403
-6.694483
-2.166412
-8.382806
-4.031434
0.004127
-1.875330
1.777836
-3.362712
-6.222585
-2.918490
-1.340885
0.002588
1.121331
1.957748
-1.657473
0.692446
1.110507
2.176585
0.627054
0.354214
0.057504
-0.305690
-0.724341
-1.457907
-0.818817
-1.531246
-1.218814
-0.001513
-3.245422
0.910104
-4.026205
-1.109463
-7.180924
-6.537068
-4.156239
-4.459665
-3.209386
-3.444678
-3.614088
-3.759970
5.855652
52.674844
79.756783
86.117267
95.608394
104.981740
108.117137
106.001659
97.587033
81.206314
71.635298
57.083384
42.190673
22.312679
29.723782
24.768742
14.859277
9.829368
4.879066
4.836803
-9.613975
-2.376748
-9.312950
-0.004831
-2.237770
-6.548369
-10.558071
-2.039904
-5.906234
-5.609864
-7.186964
-10.129476
-4.763092
-4.410270
-0.002847
-3.711683
-2.254099
-3.013097
-2.547372
-0.713731
-1.771165
-0.466398
-0.000734
-0.000461
-0.000188
-0.026245
-0.147927
0.268353
0.761081
-0.486727
-1.756048
-1.375655
-3.979072
0.898502
0.002089
-1.085592
-2.383513
-5.171150
-2.756087
-4.465378
-3.224192
0.003642
3.609149
-7.532099
-1.961223
40.696680
81.592319
92.839156
111.059857
114.168099
119.865750
105.412981
105.279397
88.744128
74.241178
54.655359
44.848264
39.827243
34.715663
34.648709
29.671032
-9.873932
-58.694978
-62.965312
-64.612479
-70.859871
-53.390126
-66.140680
-44.704309
-39.071667
-27.315771
-14.104057
-7.818855
-3.740062
1.773044
-5.038781
-6.241702
1.454375
3.997940
-2.431279
2.197081
2.899763
2.426039
2.031269
0.001165
-0.427079
1.482948
0.165324
-0.105085
0.136182
-1.156848
-0.903223
-0.799994
-0.513509
-1.251755
-1.439988
-0.001716
-3.678145
-4.054426
-1.111819
-3.619950
-1.309685
-2.776448
-1.505195
-3.251738
-3.444678
-7.243406
-3.764675
9.773835
38.670514
88.547685
93.587075
102.386929
94.052025
110.467725
117.126476
117.218227
98.151121
64.101985
54.601163
39.783657
32.353750
17.385834
19.870406
19.776412
12.276031
12.182051
-0.005123
-0.005069
-2.376748
-2.329637
-4.574081
-13.416618
-4.348200
-2.101149
-6.103814
-1.962171
-5.623977
-5.334663
-1.698350
-3.119975
-0.003065
1.339354
1.219727
-2.249394
-1.957631
1.643574
0.698997
-0.001205
-0.927051
-0.994957
0.394458
0.154966
0.000096
-0.157470
0.000575
-1.132471
-1.476513
-4.818681
-1.418644
0.001705
0.001912
-1.009242
-11.043360
1.219567
-1.307482
-2.794299
0.003153
-3.281511
-8.698993
-7.283578
-3.787828
13.794486
52.966588
88.169595
100.085622
104.508900
112.587672
115.047964
110.094185
102.027686
89.002355
77.012309
52.271576
37.302693
29.843204
24.893919
19.916247
22.319146
9.846081
14.665921
-4.857782
9.597297
-2.359671
-6.981185
2.273809
-2.218902
-8.640886
0.004424
-4.012327
-1.942136
-3.697073
3.522989
1.662828
4.651105
0.003032
6.577591
3.603171
4.315435
0.001983
3.167204
1.349841
-4.797335
-6.989996
-6.873125
-3.299081
-0.451825
1.316073
1.945750
2.220518
0.835875
-1.072933
0.626283
2.219652
1.667053
-0.001949
-0.002152
1.121210
-2.437627
-1.321462
-4.191521
-10.549707
-3.279973
-6.970602
-3.647029
-9.476398
11.856406
44.983912
84.425006
88.462868
96.113724
105.414209
115.629284
103.491539
100.219371
86.128140
61.577461
54.704574
32.231546
24.839241
27.323813
12.416999
24.721742
7.391792
4.902546
-9.717452
-4.814079
-11.874890
-9.312950
-4.564669
-4.479964
2.167361
-4.197613
-8.137073
-3.910557
-5.631033
-5.320550
-1.679506
-6.246262
-7.218993
-2.668214
-4.901058
2.221173
-0.972841
2.459233
-0.001478
-0.572398
0.920401
0.323697
0.380370
0.317180
0.172263
0.000333
0.555254
-0.381747
-0.998305
0.001276
1.431214
-3.202098
-1.805547
-6.022853
-1.095135
-3.626776
1.301031
0.002936
1.507088
3.264509
0.003663
-1.815682
0.004006
15.745506
49.121933
73.977379
97.694931
111.657596
103.397388
125.072969
120.025938
109.960594
83.651684
64.591884
62.107675
47.248473
32.391667
24.846092
22.297623
14.909875
22.103918
4.906337
4.839323
0.005050
-9.434241
2.324126
2.276205
4.451603
6.474223
-4.160401
0.004258
-3.878583
-3.687520
3.546922
3.307589
1.552612
5.702881
0.002760
-1.195344
2.149215
-0.937665
2.397329
0.654110
-1.084284
0.799374
-0.283924
0.753433
0.229582
-0.082444
-0.404703
-0.313288
-2.553531
-2.135394
-3.780919
-2.201607
-3.330085
-0.925730
-1.022308
-2.244688
-6.078533
-2.654096
-8.394204
-7.571712
-8.159578
-5.242929
-7.309255
-9.464640
5.912025
49.130088
84.425006
93.283877
91.450176
114.933776
146.307990
161.571860
178.615188
162.728075
116.101579
104.243428
69.625490
57.299609
42.190673
29.836586
19.851607
7.363606
9.763588
7.264955
4.799235
2.359702
-9.265915
2.270568
4.465825
-8.673273
-0.004414
-4.065849
-7.789013
-1.865594
5.313071
-1.674795
-3.096446
-2.912918
-2.654096
-0.002559
-4.430707
-0.002033
-0.815020
-2.032253
1.131718
0.438633
0.309623
-0.188444
-0.058889
-0.262882
-0.348690
0.000610
0.395341
0.505557
0.001276
-0.715775
0.001695
0.910482
-2.020493
0.002336
-1.219203
-1.305096
1.396871
0.003178
-6.576249
-6.939472
0.003864
-1.896803
11.795878
45.186673
86.364421
101.699521
111.418500
112.353358
113.159396
112.824662
102.529790
86.111677
66.623878
54.602755
42.234934
34.849571
29.785813
24.846092
17.310071
7.357071
4.891977
0.005090
4.810603
-2.354899
-4.614176
-2.269006
-8.879848
-4.308475
-6.264431
-8.029142
-3.859477
-1.832384
1.758668
-4.931268
-3.057011
-8.546716
-10.459598
3.567282
-1.073662
-0.930507
0.793078
0.001357
1.057854
0.789801
0.854138
0.000313
0.028752
-0.089511
-0.418820
-0.973788
-0.000918
-2.739455
-0.001354
1.469825
-1.684692
-4.667655
1.027385
-4.534184
-0.002599
-0.002782
-4.226803
-4.593738
-8.218365
1.747493
-7.299848
-0.004012
15.866247
59.298487
84.801064
91.805292
105.275742
111.013220
104.140166
110.711948
109.997514
81.438997
56.921215
47.333424
37.297044
29.864786
29.780184
14.845179
7.448164
-0.005188
2.439454
-2.419148
-2.416792
-14.192553
-4.630551
-9.087182
-15.553001
-2.174171
-10.452255
-10.076021
-7.760792
-7.384511
-7.064672
8.258421
38.955970
38.772840
34.220316
30.201159
18.498373
11.477779
7.211965
8.707100
2.170730
-0.000913
1.193432
0.328715
0.112744
-0.243696
-0.559068
-0.303011
-0.412763
-0.515358
-1.246687
-1.442527
-3.297683
0.001952
-9.207441
-3.383079
-1.228747
2.670962
-1.400533
-1.526986
0.003496
-8.782637
-5.526174
-3.826041
13.911672
59.909711
90.988542
98.017712
103.165180
105.474848
115.750905
108.884659
100.774829
86.613786
64.343214
49.591606
39.788984
37.338561
27.330300
22.405237
12.377830
4.915910
-2.440792
2.427154
7.170453
-2.352513
-2.307181
-9.051901
-11.076877
-10.742300
-10.407724
-6.006399
-5.769871
-11.084918
-5.210802
-3.286287
-9.105981
-1.407690
-3.863305
0.002512
-2.125578
-0.911420
0.771514
-1.928069
2.076384
0.804161
-1.060994
0.000277
0.009584
-0.432723
-0.642135
0.323697
-2.175104
-0.001141
-1.968745
-2.243946
-1.689398
-4.702927
-6.193370
-0.002396
-1.243729
-0.002792
-0.002986
-4.579625
-4.981841
-8.806231
-9.147193
-0.004052
11.926896
61.836811
82.772497
102.624517
108.192762
98.943571
115.629284
109.151379
105.310726
79.121300
69.362256
52.168296
44.799806
34.843023
22.376127
24.839241
14.831081
9.819971
-9.792708
-0.005108
-0.005054
-11.792589
2.317481
-6.802401
-6.654216
-0.004528
-10.405226
-2.004571
1.925761
-9.229494
-1.745461
3.305931
-1.526395
-0.003025
1.301824
-1.206040
-3.253015
2.832698
-0.786753
-2.690408
-1.110579
0.424559
-0.299155
-0.508063
-0.000084
0.071880
-0.793356
-0.601849
0.852027
0.001095
0.627753
0.735574
0.001740
1.857228
1.018302
-2.244993
0.002588
-2.627119
2.824135
-7.671365
-34.790512
-52.858021
-56.547058
-55.255893
-21.798006
16.453384
42.418278
69.779426
91.854100
99.007870
104.150550
110.644106
92.947124
81.349192
56.864593
52.171150
32.298408
27.356605
12.425667
27.225082
14.780723
17.142662
-4.881665
-9.663645
-7.174709
-7.038525
-4.623730
-2.257077
2.213909
-6.429284
4.150043
-1.999398
-3.821264
0.003864
-6.958589
-4.873928
-3.028352
-1.398147
-3.827467
1.178835
-4.205741
-0.901876
0.757138
3.157243
0.001054
1.925440
0.000530
0.103028
-0.018823
0.239492
-0.000491
-0.341554
-0.452265
-3.917052
-0.001394
-0.765553
-3.442970
-0.958708
-0.002217
-2.310570
-4.995128
-5.390223
-1.439240
-6.236855
-5.024180
-7.083487
-9.253009
-15.423208
23.886189
56.033417
87.017396
103.066387
101.536167
110.787584
111.793338
106.415324
98.433164
74.175969
76.794508
44.884414
34.744318
29.780184
29.977590
17.352938
17.336490
-2.468614
9.763588
2.425380
-4.785844
-4.715256
-4.635257
-9.087182
-0.004687
-0.004548
-6.251999
-6.012080
-5.800387
-0.003878
-1.750172
-6.537879
-0.003209
-0.002986
-6.478282
7.133581
-4.280194
-0.921019
0.771712
-1.289401
-1.594754
-1.227819
-0.275599
0.429837
0.032871
-0.391899
-0.623576
0.000671
0.000903
-0.529673
-2.599913
-3.775936
-0.849386
0.946422
0.002210
-1.133310
1.253111
-2.674885
0.003027
-1.548460
-1.686843
1.775440
-5.547677
0.004061
22.016806
69.912972
85.023360
102.373772
103.605117
106.464706
118.471818
113.161787
100.186649
86.111677
69.426094
54.550151
32.298408
34.883048
19.935379
19.839720
9.932198
4.901550
-7.303724
-45.920767
-66.671137
-70.286107
-66.556659
-58.676460
-55.224067
-27.626531
-24.812783
-17.984628
-9.547384
-1.815682
-3.453467
-6.451989
-1.500741
1.394475
1.265091
3.459618
0.002179
-2.687828
1.488654
-1.208475
-0.491499
0.737147
0.937722
0.770080
-0.070544
-0.395160
-1.509546
-1.798870
-1.411286
-2.314127
-0.001414
0.771712
0.865537
-0.002038
-2.131747
-3.492934
-1.267285
-2.701155
-5.785318
-4.678415
-1.691283
-8.900289
-5.546356
-1.943327
30.070301
70.801622
85.553180
103.066387
108.305581
116.108967
100.393529
111.468768
100.315736
83.907115
59.565297
47.199461
34.843023
32.353750
24.839241
17.369386
19.795211
12.299525
-0.005153
2.415997
-2.402659
-4.734079
-4.630551
-4.541140
-2.214215
-6.435466
-8.287585
-6.005024
-1.926838
1.822553
-3.482325
3.254276
-0.003219
5.638261
-0.002723
-5.855144
-2.117630
-2.744952
-3.132538
-1.284695
-0.522932
0.803003
-0.541172
-0.153111
0.117474
0.000212
0.000449
-0.329256
-0.869338
-0.543989
-0.644197
0.001569
-0.851772
-5.664350
-7.361548
1.145291
-3.748624
-1.328955
0.003012
-6.203468
-1.672527
0.003738
0.003890
1.926389
31.984222
70.725914
91.605413
87.605622
100.815144
106.684674
123.086078
106.254601
93.583126
83.489096
61.808793
44.805223
32.205150
32.360581
19.801456
24.726524
17.243107
2.451114
-7.332394
2.412778
0.005035
-11.757979
2.302562
2.252245
-2.195043
-2.121079
-8.201195
-1.982696
-3.811711
-3.611095
3.432042
1.614908
0.003173
-2.741757
2.522575
1.159667
0.002149
0.001841
1.474294
-0.620338
2.439688
1.098178
0.703408
0.301460
-0.094059
-0.000268
-1.269790
-2.518105
0.939185
12.042634
17.537912
21.585218
22.548744
23.183084
18.178746
17.449940
8.865624
5.403333
7.201155
1.562189
-1.698350
1.768604
-5.574582
-3.863498
28.098151
62.541906
89.633554
105.936396
113.406026
113.786586
121.787703
101.676829
93.332405
69.296447
64.651954
42.190673
32.414853
22.439576
22.418426
12.381757
9.876353
4.907242
4.864978
-4.847020
-14.319524
-4.701138
-11.592715
-11.298782
-8.842599
-6.407241
-6.202604
-13.989471
-3.844675
-3.665853
-3.482325
1.620829
-0.003219
-1.401551
-0.002688
-0.002485
-2.094101
2.698815
-0.770264
-0.626576
-0.520576
-0.391021
0.260365
0.138392
-0.014118
-0.195840
0.000459
-2.007618
-1.720530
-2.169780
0.001367
2.268131
-1.700463
-0.937665
0.002235
-1.140468
0.002654
0.002820
1.435207
-1.550845
-6.719627
-5.296813
-5.526174
-3.854700
33.820467
60.395090
85.310278
100.855512
110.713163
113.524926
116.453846
108.669471
90.147608
66.559320
52.120938
42.153634
29.843204
39.635949
22.254578
24.798265
14.766373
0.005166
2.441530
-7.196211
0.005015
-2.326268
2.309750
-6.737489
0.004621
-2.123465
-6.149750
-1.975538
-5.662357
0.003784
-5.124792
-3.176426
-2.971033
-2.756087
2.498642
0.002411
2.029548
-0.858930
1.440788
-0.596479
-0.465254
-0.706934
0.213245
0.344469
-0.061176
-0.602049
-0.531760
-0.000774
-1.947253
-3.583408
-2.765664
-3.160759
-0.001870
-0.002073
-3.253015
-7.110384
-5.164454
-5.484293
-5.841760
-1.592350
-3.388208
-5.391114
-11.173461
-5.835670
40.424095
64.699737
85.929237
97.728358
100.313765
112.028585
105.484577
94.780467
86.128140
84.066937
112.430151
99.749367
112.218618
102.243031
84.706230
67.392400
52.020231
29.526375
21.974288
14.492730
-9.566940
-0.004970
-6.929417
-6.781232
-2.202437
6.377094
-8.268771
1.986747
-0.004027
-1.813772
-5.207647
-4.861882
-4.530230
1.388612
-5.032756
-0.002440
4.144122
3.542707
-1.496458
1.825047
0.499619
1.120396
1.245224
-0.000248
-0.021503
0.000257
-1.194917
-0.702157
0.469617
0.001196
-0.672828
-0.770651
-1.753005
-2.917189
-4.243975
-3.526430
2.541722
-1.352814
-1.450637
-4.737745
0.003562
-3.563329
-3.697073
3.867629
42.178793
74.885927
95.973434
105.584832
104.265022
111.667437
104.781765
94.180848
88.313749
66.817552
49.639428
47.339336
34.782617
27.356605
19.839720
12.365870
14.795073
2.451114
0.005136
4.820177
-7.131703
-11.686284
-2.290479
-8.937199
-4.365794
2.125257
-4.093529
3.934643
1.888053
-1.796595
-5.074619
-1.584248
-1.481654
-1.355200
2.479495
-4.511613
-1.991834
2.533704
-0.713389
0.577437
1.363750
0.997691
0.000429
0.000156
-0.112903
-0.319997
-0.277955
-0.381599
-3.949846
-2.398790
-2.822106
0.795168
3.617884
-1.971749
-2.188218
-0.002505
-1.286129
-0.002901
-2.945859
-6.377960
-5.115914
-7.196371
-3.731735
-0.004121
38.268627
73.213032
88.173773
103.508259
99.900100
98.221791
109.738894
109.468680
88.758431
71.839776
62.165032
47.288770
24.980240
29.864786
24.933240
19.814010
7.419978
-0.005183
-0.005138
-4.837608
-9.548126
2.343283
-9.218880
-13.600021
-6.597764
-12.824086
-12.358525
-1.990438
-7.619687
-5.440509
-1.707772
-8.065520
-5.982865
-1.377995
-2.508215
-3.464708
-2.056454
0.865537
11.882453
15.335608
14.948009
10.564673
6.536174
3.045984
-0.191248
-1.584874
-2.868530
-4.130683
-1.404838
-1.136826
-3.369665
-4.646201
-0.861316
-0.971068
-3.218226
-1.164327
-1.278851
-1.357586
1.473544
-1.579476
-5.081787
3.590002
-7.455631
-3.878583
44.292408
74.972003
94.366710
100.855512
108.798284
115.961315
117.508256
111.413995
98.221587
79.037442
56.864593
42.194284
37.230957
32.236236
32.174064
9.922629
4.930270
17.109180
0.005105
-2.393074
2.374442
2.343294
4.580843
-6.708818
-2.173570
-8.373248
-2.023257
0.004137
-5.619352
-8.949925
-5.060284
-6.299053
-1.472110
-4.049661
1.233943
-4.511613
3.980534
0.840998
-1.409091
1.172734
0.000964
-0.654391
0.813330
0.334901
-0.084705
-0.296468
-1.399121
-1.904685
-2.516066
-1.792334
-0.709020
-0.805597
0.879611
-0.002093
-4.327230
-0.002500
1.280713
-4.106844
-5.841760
-4.791318
3.423329
-0.003794
-11.258108
5.841559
40.565109
71.440914
97.199726
102.062577
104.981740
112.028585
110.495714
104.603264
96.155426
74.105460
64.529739
52.267007
32.414853
22.481875
17.385834
17.385834
12.323020
-4.894078
2.430071
2.413652
-7.148166
-2.350837
-6.901191
2.242421
2.188471
-2.122349
-6.181435
-3.976438
-1.900927
-1.801994
-6.867125
-1.594706
-2.974094
-0.002891
-0.002624
-3.450595
-1.012886
2.621303
-0.001523
0.593444
-0.001017
-0.374532
-0.470584
0.211317
0.028720
-0.128839
0.246789
-0.706934
0.472013
0.001216
-2.006911
-0.765879
-1.748228
1.952961
-4.263092
1.188419
0.002714
4.091250
0.003077
1.605324
0.003617
-26.821698
-52.413153
-42.548320
-14.120788
14.665012
58.037661
52.851986
77.310740
99.727554
99.918846
92.038550
83.570390
76.567579
54.497547
39.827243
37.266825
29.843204
34.682186
24.702611
4.930270
-2.443178
-4.853005
-9.577619
-4.724038
2.336106
-6.837834
-4.456549
-8.631327
0.004414
0.004288
-7.847530
-7.484307
8.885727
-1.679685
-4.701907
0.003062
0.002845
1.229151
2.211441
1.976895
-3.297683
0.690050
3.934107
0.871174
0.316273
0.186888
0.215329
0.060986
-0.334115
0.582295
-1.627415
-0.513509
-2.445825
-4.331127
-4.079789
-2.723783
-6.978277
-4.449521
-0.002529
-5.202082
-4.170352
-1.488706
-4.847769
-8.606356
-0.003814
-5.659259
3.921097
42.494705
78.179746
91.015569
102.278812
109.997856
105.766841
103.491539
97.681048
93.332405
71.839776
54.807985
40.084479
32.384302
24.980240
22.397277
24.839241
27.194561
4.897850
-2.447414
-7.261069
16.645662
-0.004950
-6.894135
-4.512905
-10.957819
-6.343733
-0.004335
-0.004146
1.883540
-0.003779
-0.003591
-3.171739
-0.003125
-2.719978
2.479448
-0.002400
-0.002128
2.536745
-0.001518
0.605172
