250.684379
-41.856920
-47.937938
40.824113
8.314884
8.812002
1.699936
0.944122
1.141826
-0.572393
-0.002466
0.179011
-0.148411
-0.175601
-0.669969
1.390702
7.806425
30.085085
56.402354
75.357843
87.298211
107.553147
112.231864
116.515393
127.236427
159.641743
162.971547
151.480564
158.195478
159.486517
152.908516
148.417010
137.364622
128.307542
137.316352
145.327282
139.321065
131.554957
112.982488
92.320800
73.063640
72.427689
70.452489
52.958546
55.256769
57.653542
33.083193
40.064623
32.338659
12.974672
10.605234
8.169413
-7.713855
-40.495926
-65.001350
-55.425425
-53.387243
-45.976193
-30.818600
-37.055736
-25.230934
-13.693415
-7.269687
-5.331383
-0.506410
-2.379597
-1.953401
1.632563
2.339868
2.623977
-0.138215
1.152778
0.000000
-0.429420
-0.975188
-2.502747
-2.484800
-2.406170
-2.999763
-2.576517
-6.433118
-4.324746
-1.526421
-5.077337
-5.575531
-0.685523
-3.549934
27.815684
77.754390
126.114458
145.160098
143.332716
149.164997
143.903853
142.834027
134.812507
134.163281
150.212606
143.953117
148.780814
140.507153
122.339564
102.071359
73.020913
63.826530
50.771149
35.959746
43.617977
30.990753
28.318032
23.137799
13.316841
10.800208
1.130726
-1.235421
-10.356071
-1.194734
-10.006276
-5.419566
-11.362786
-5.034990
-10.547460
-8.225498
-6.061421
-5.706324
-0.795256
-9.185191
-0.669495
4.050566
1.559561
2.282110
1.162770
3.575937
-1.390391
-0.647031
0.136352
-0.594581
-0.020960
0.113252
0.471629
0.160025
-0.613550
0.792763
0.335171
-2.585139
-0.404448
3.299835
-1.530350
0.601039
3.162335
-3.344459
-2.129796
0.826586
26.232999
70.565943
107.381848
115.388735
116.952004
124.078504
119.594560
128.437111
123.443161
126.444422
119.828667
117.175903
106.977556
80.798540
63.593107
51.136888
38.680669
41.172036
43.663095
21.180499
18.714632
13.583067
15.884435
8.473235
-3.515573
-1.109116
1.212159
-14.608749
-7.647356
1.116396
-3.021912
-0.930117
-2.768029
8.102875
-0.795301
0.824066
0.771145
-3.308943
-0.572118
-7.157203
-1.442196
-0.390853
0.364152
0.843909
3.206164
1.936745
0.952270
0.216654
-0.440017
-1.222654
-1.708300
-3.926259
-3.331733
-3.364834
-5.393244
2.846784
13.116326
26.408917
36.762330
31.926273
33.344888
32.595817
27.426351
23.216236
19.720527
2.646423
12.036071
29.929380
75.115208
88.618713
92.944893
104.498162
109.310187
107.738480
107.975736
105.466494
91.787976
77.165143
65.340373
40.851896
40.813320
25.850080
28.371766
20.973090
6.093349
3.598721
1.151789
-6.088137
-8.390196
-15.267896
-10.377271
-7.952519
-12.139286
-18.089641
-13.388065
-3.024244
-18.002791
-9.990969
-4.325003
-4.070591
-9.781235
-6.317521
-5.734529
-2.958279
-1.605065
-0.480853
0.365823
0.938497
2.832552
1.801781
-0.957936
-0.396409
0.037954
-0.119889
0.109623
-0.149544
0.657591
0.286029
-1.615995
1.898610
-2.975819
0.500236
1.607445
-5.149388
-3.137280
2.067759
0.763584
-2.334313
7.702065
-8.039897
-6.475316
16.609756
63.526671
97.649157
97.729307
100.779944
115.112907
117.289411
115.317812
108.263276
92.320800
82.801018
58.610681
51.284257
36.085009
33.892469
38.532040
23.710284
18.660595
6.167460
13.503711
-3.564940
1.258780
1.231059
1.204598
1.184438
-5.404409
-3.127697
3.123558
4.970247
2.875135
-0.844016
-5.876827
2.407515
5.148081
0.708143
4.278815
2.787450
2.460937
-0.391986
3.769400
1.966398
1.076282
0.463967
0.925818
0.120931
-0.256000
-1.445248
-1.708300
-2.225967
-0.786446
-2.787765
-4.011917
-6.151118
-4.123349
-5.551976
-4.992538
-5.448332
-1.976840
-3.502602
-2.262821
-5.640260
-6.036647
-11.722199
-12.211260
4.801698
39.353437
76.014553
86.815295
95.795339
102.864459
106.059007
94.098547
102.742009
82.303723
62.514209
62.872115
80.453481
90.448777
83.009184
88.052186
75.569898
47.880775
47.515969
22.960328
13.163037
8.239405
-1.228023
-3.513985
1.065321
-7.680003
-9.603481
-9.253685
-10.948652
-0.996228
-2.748987
-7.695504
-2.448708
-0.781694
0.646288
-1.912494
-0.606614
3.562546
-1.340534
3.352150
-1.573804
-0.257688
1.285119
0.619761
0.182869
-0.001133
0.175358
-0.562343
-0.497187
-1.130605
0.847562
0.354071
-3.468611
-3.025693
-0.462226
-0.506410
0.622460
-1.904122
2.089679
5.198718
7.247090
2.619405
2.765536
-2.771555
18.649050
55.664348
89.253916
106.908622
111.727233
117.761206
119.980789
123.556784
110.585560
99.798246
83.282419
68.378217
51.186011
48.786019
38.494883
26.123683
13.728552
11.211866
16.025005
3.719044
3.693471
3.635018
-3.452103
1.209639
-3.311057
-1.030946
-0.998091
-0.960705
-4.877583
-6.516878
-0.847415
0.883288
3.978616
5.131202
2.020266
4.245057
0.575838
-0.458827
-0.389720
1.041186
-0.262835
-0.631181
0.161285
-0.260935
0.151911
-0.189330
-0.479241
-1.377983
-2.316559
-1.833291
-0.947310
-3.275359
-3.731154
-5.060193
-4.568543
-7.228944
-9.023990
-5.946526
-4.880518
-5.252131
-4.076508
-14.675371
-4.573499
-6.614712
6.750944
39.581441
76.099963
91.403588
91.873935
105.779599
98.962536
108.614646
100.031874
91.524722
77.459947
60.289544
40.890472
40.851896
35.858069
28.506102
15.992512
3.629775
-8.637938
-1.277342
-10.875465
-3.631952
-3.560457
1.080841
-3.421042
-5.508315
-7.415744
-1.070205
-12.792021
-6.631228
-4.520250
-2.591698
-7.186711
-0.777995
-3.473019
-1.901770
-5.162136
-3.542711
-2.183210
-1.875549
-4.564870
4.226365
8.104381
7.492766
3.216728
-0.204422
-3.287392
-5.729866
-6.850564
-7.035717
-4.805879
-3.719984
-4.243926
-3.896834
-2.403275
0.567018
-0.556258
-0.610637
-3.433250
-3.675945
-3.989673
2.623058
-0.853079
-0.890465
10.818840
55.796098
79.119285
98.491966
103.550417
110.672583
114.040374
122.940233
105.727575
94.873255
65.894030
63.226576
41.290688
38.680669
28.743092
26.098491
16.228051
23.482300
11.081874
8.599827
-3.561413
3.631365
3.565606
1.204598
1.183178
3.335449
-7.323175
-7.098742
-2.898497
-4.599371
-6.184384
2.557299
-0.740921
0.768624
2.031226
-1.791285
2.781403
3.392670
2.067913
-1.012006
0.869482
1.510666
0.474927
0.978721
-0.022658
-0.183413
-0.869189
-1.073549
-0.618433
-2.310771
-2.766566
-3.275359
0.386886
-2.295624
-3.493162
-0.581955
-3.023361
-4.616260
4.815131
-8.230902
-5.673292
-6.028389
-8.119499
-8.458695
2.870696
41.470296
74.429018
82.705569
98.311130
105.779599
110.723585
111.438590
105.161089
99.325796
55.467646
53.150548
53.200832
25.972708
33.222997
23.470557
13.560363
10.988766
-3.732045
-8.555358
-10.896665
3.491760
-5.886974
-10.356071
-5.656229
-9.826078
-5.301235
-1.070205
-10.819235
-4.750995
-8.087699
0.802594
-0.834711
-5.202582
0.641853
-1.887471
-0.604148
-1.565743
-2.206876
-4.050742
-0.316869
-0.255222
-1.288258
0.327784
-0.266245
0.005040
0.070562
-0.609698
0.882793
0.246968
0.880442
-0.317214
0.409513
1.333449
-3.383124
-3.715618
4.185980
1.969120
2.096985
2.265036
0.849267
0.908489
4.577223
2.878788
14.733945
51.803031
64.214822
50.672059
36.861035
44.533598
41.104546
61.455010
59.752051
50.547414
33.439275
18.732644
23.733082
21.221309
16.228051
13.781456
18.606559
21.037663
-6.085139
1.281461
6.088855
-5.895719
8.236929
-3.374527
-16.722498
-1.025281
-9.442329
3.108945
-0.925585
-4.634887
2.699777
0.879508
0.826586
5.029928
-0.627631
4.228178
2.757217
-1.421039
1.231157
1.686982
2.480693
0.624712
1.038056
1.030848
0.020161
-0.045619
-0.685420
-0.486167
-1.886777
-2.384970
-0.961609
-4.024859
-5.486661
-1.412029
-2.550036
-0.585654
-0.641137
-3.319188
-6.328121
-2.298568
-4.117924
-13.095360
-11.890314
-10.418044
10.727811
47.931792
76.783240
89.640213
94.387383
113.187267
97.215443
106.434295
98.378031
79.464922
65.402366
55.362395
30.932335
35.891962
35.925854
33.286099
23.426190
-3.757069
3.598721
-6.123637
-8.481035
-8.390196
-10.546869
-3.485387
-3.424616
-7.646970
-7.399228
-9.190086
-8.840290
-0.983898
0.838068
2.480806
-2.402236
-6.646117
-3.396104
-3.118026
0.530998
-5.422559
-2.141794
-1.086726
-0.311938
-0.714951
-0.525489
0.104204
-0.051784
-0.082872
-0.211569
-1.145498
-1.280101
-0.225449
0.898708
1.753493
-1.977078
0.472515
-1.456301
0.577098
3.047451
1.998347
-2.048694
-3.693703
-5.652394
-6.043074
0.955110
-0.896130
6.962568
45.930505
85.735325
98.383015
114.925072
115.475657
113.575851
109.496047
120.894451
92.410606
73.063640
66.084475
51.186011
43.663095
26.174066
21.262119
21.241714
23.436703
1.292801
1.282721
1.268860
1.252480
3.554646
5.780482
7.899350
9.803613
9.500296
-0.957307
8.839500
0.984091
-6.126197
-34.199011
-45.917652
-40.816329
-36.358553
-24.448863
-21.064318
-19.451300
-10.801706
-5.616998
-4.042016
-0.624129
-0.728086
0.088203
0.054799
-0.218913
-0.701936
-0.165216
-1.436904
-4.512427
-4.080609
-4.768352
-4.555468
-2.289708
-3.575743
-7.305360
-5.480132
-0.692921
-7.700293
-8.269727
-12.266986
-6.127486
-8.193698
-10.443927
8.778442
45.573986
81.083891
91.701968
101.160699
99.154793
101.496231
99.352046
100.808820
84.278256
65.340373
43.249720
35.925854
35.925854
18.568116
25.948183
15.977354
-3.746344
-6.188719
-11.013263
-10.886065
-8.357164
-10.546869
-8.035099
-3.392444
3.201930
-3.195832
-5.123738
-4.916659
-0.981432
4.390455
-2.566675
-3.958177
0.693956
-2.041186
-4.352001
-2.816281
-2.484954
-3.815953
2.440100
-0.886540
-0.245358
-0.514765
0.103096
0.039908
0.016381
0.211891
0.401861
-0.543027
-3.577005
-2.036524
-1.015532
-1.965240
3.131046
2.497217
-3.790429
-0.567587
-1.921753
3.488847
0.790045
0.858087
2.641325
0.960151
-8.468120
14.824006
47.688037
79.119285
96.648417
103.439073
118.254447
116.153492
111.455880
105.935905
94.504457
80.331496
45.977115
45.932779
46.021452
41.053385
23.687485
23.550695
21.017258
6.179553
-6.002268
-1.140838
-3.483838
3.547339
3.463314
-1.055870
-7.506046
1.096235
-9.056928
-6.716374
4.698153
2.677858
2.528073
2.363675
-2.101587
-0.623099
0.627500
3.772446
2.394426
-1.188313
0.349031
2.896486
1.426272
1.278261
0.671629
0.054419
-0.491783
-0.726710
-1.147871
-1.511226
-1.899355
-4.157025
-1.118899
-7.187937
-1.419178
13.913905
30.880591
31.316755
32.609078
28.957294
37.308454
28.642199
23.663103
17.303435
10.407387
18.701021
62.225638
85.298871
94.675521
101.799609
102.268569
100.156053
109.147070
88.740585
82.538877
58.045840
45.898041
43.331555
28.506102
20.992932
20.933406
13.534729
3.622874
3.605622
8.410212
-3.664125
-6.011222
-1.224324
-8.043358
-14.564870
-9.762479
5.172396
-13.174101
-10.780410
-2.852655
-0.932114
-2.548801
-3.946344
-2.209199
-4.674066
-1.855298
-0.577023
1.407745
-2.898582
-1.036679
0.267162
-1.112313
1.730292
-0.508824
0.096610
-0.023791
0.573884
0.423781
1.375635
-0.239043
-0.291157
-1.043741
-2.851134
-1.346990
-1.491562
-2.746600
-0.577783
-0.627631
-0.666150
-3.770655
-0.779440
-2.581143
-4.534258
1.000472
18.922630
64.432039
90.169862
98.927772
97.498532
115.717491
119.103165
109.387095
113.460081
89.860544
73.204962
53.370675
51.235134
46.198799
28.687923
28.660339
16.149956
16.071862
8.608266
1.275161
-3.536730
5.992110
-1.097787
3.481580
-1.052471
-5.327457
3.189317
-11.042066
-6.741311
-0.876870
-2.577617
2.509807
6.932942
-0.674080
5.817171
1.793763
-2.645970
-0.440701
-0.377258
2.957333
1.839806
1.400953
1.234930
0.071822
0.043331
-0.157289
-1.216517
-2.875175
-1.536001
-2.448570
-4.248724
-2.667356
-2.153627
-1.440627
-8.885088
-3.996905
-5.596730
-4.690582
-3.573600
-5.384260
-5.813679
-9.693310
0.867999
-12.440508
16.786409
48.206630
76.954059
87.763061
85.768738
108.166715
109.806188
108.721131
103.438228
82.303723
62.872115
50.867034
45.941300
28.532969
25.972708
26.021760
11.072570
1.161766
-3.735620
18.095600
61.142237
72.073273
64.077226
62.468862
49.994558
39.841749
30.401406
29.249068
12.581787
-0.983898
6.108384
-2.530927
3.869161
0.683979
0.630768
1.787284
-1.676561
-3.443614
0.386886
1.014405
-0.297142
0.211734
-0.165216
-0.726710
-0.035756
-0.246229
-1.162527
-0.419612
-0.184664
0.260828
-0.287758
-1.047267
-2.792948
-4.046712
-5.462089
-4.967393
-2.989295
7.247829
2.140825
-0.715997
4.147919
-4.315240
-6.350631
6.700944
14.842018
56.388973
79.119285
96.754975
108.001576
104.920093
123.943560
114.192432
108.582952
85.188219
75.757418
65.703584
41.092935
33.730614
33.536388
28.550000
16.118718
23.368308
3.715390
6.119087
-5.943074
10.659398
-1.096654
3.459661
3.382942
-5.315618
-3.060700
-4.954535
2.933588
0.967711
-6.068011
-0.779440
8.411714
3.573499
4.515120
4.135344
3.764007
1.410168
1.180011
-0.955587
0.800069
-0.185797
0.137344
0.740654
-0.002266
-0.466394
-0.784516
-1.536981
-2.873238
-0.288512
-0.993782
-4.193101
-3.953751
-1.444201
-2.632868
-5.183336
-5.617930
-2.037611
-5.062195
-6.921714
-4.200755
-7.960501
-11.936163
-8.649492
4.888581
58.608270
77.210288
100.991222
93.039355
102.060283
109.915015
109.785980
99.041467
68.001635
68.001635
28.532969
40.813320
25.997234
23.537109
23.514925
8.597286
3.629775
-3.735620
-15.879223
-6.058554
8.215004
3.419303
-8.043358
-1.170074
-1.133086
-5.253903
-5.100072
-8.755491
4.570012
-6.201809
-10.789925
-5.433808
-6.465920
-1.987564
-5.384733
-1.665836
-1.447776
-0.424137
-0.356324
-1.396307
-1.478194
-1.773009
-0.816190
0.027714
-1.398330
-5.649016
-8.970055
-12.822722
-14.004289
-14.661715
-14.120549
-14.552066
-7.807019
-10.677461
-10.632801
-11.698348
-8.597938
-4.929220
2.338102
-0.786238
-4.344837
-2.715137
1.000472
14.950091
58.573872
81.965329
99.363577
95.461999
113.427441
109.563022
109.604998
101.465863
80.253655
68.312342
50.989519
41.211587
31.056986
36.015481
26.048108
25.972533
18.570534
3.740963
8.574508
-1.135173
-5.854283
5.846994
-3.339266
-7.672293
1.128996
5.218155
3.054146
-0.911990
4.625595
2.655938
-2.397783
-2.228528
0.739644
3.228847
0.612379
1.603792
1.395555
1.169051
0.971774
1.269771
2.116155
0.919903
0.563301
-0.015283
0.056536
-0.809291
-1.205678
-2.056374
-3.683246
-1.686219
-2.692130
-1.304786
-1.447776
-5.810809
-4.038195
-5.649730
-0.710182
-2.184176
-5.442066
-7.525906
-4.461084
4.541051
-10.560402
16.845935
48.481468
85.772754
99.350455
102.119064
109.834239
110.459149
109.998950
94.327593
72.606805
68.065969
45.811523
26.119863
28.559837
16.053147
23.514925
3.647026
13.457827
-8.604906
-6.117720
-3.660550
-8.324132
-17.413481
-1.195966
-10.069875
-5.425483
9.312691
-11.142777
-10.625110
-6.490841
-7.918102
2.435951
2.263434
3.539008
-7.156743
-1.826700
0.512152
-0.496881
-0.421671
-0.353858
-0.850792
0.203974
-0.155352
0.610025
0.115843
-0.177582
-0.278566
0.456661
-0.599446
-1.795466
-3.444915
-2.518640
0.433454
2.327914
-3.532746
2.829776
-1.812442
-7.204195
0.743424
-0.726194
2.531726
-2.591722
-6.400505
-2.827974
22.812416
67.020754
88.248469
101.546216
109.046753
121.178085
128.401766
121.521503
106.144235
50.596536
-11.080284
-33.340190
-35.745224
-35.883772
-35.849135
-30.895426
-23.442038
-28.116387
-32.888776
-32.566337
-10.673472
-12.862762
-14.949568
-10.116781
-18.736846
1.126476
-3.043069
-2.937285
1.010552
-4.534258
4.371641
4.117686
5.342189
-0.660485
1.950854
2.956753
5.806199
1.406515
2.709072
0.960814
2.296537
0.949305
0.860827
0.843421
-0.077650
-0.182313
-1.017587
-1.589980
-2.484800
-1.419974
-4.970244
-2.675614
-0.453727
-5.254318
-2.644701
-6.328476
-6.897910
-2.066209
-2.180601
-5.442066
4.112431
-9.745077
-8.310297
-10.638052
18.878492
56.936090
79.678281
95.184529
98.034975
100.580016
121.258382
104.855685
108.621301
75.070380
58.100807
53.401969
45.984559
28.506102
21.012774
23.492741
20.913564
1.165091
-6.170969
-15.802808
-13.252269
-1.242819
-8.142454
-5.744977
-14.519020
-7.564390
3.057015
6.978687
-1.018421
-12.027862
2.573966
-2.491605
2.242731
2.073664
-0.680591
0.559820
0.504393
-3.261937
0.372475
-1.650719
-0.815044
-0.618433
-0.428971
0.393867
-0.017261
0.199535
-0.723174
-0.148411
-0.202790
-0.789858
-0.941483
-1.100159
-0.393119
3.299835
-3.574308
0.601039
4.371649
3.367917
-3.539799
0.815246
-5.826953
-0.834953
-6.417129
1.009292
22.977923
63.265115
84.376436
110.397147
102.087359
104.593239
107.970729
117.175903
101.465863
74.953820
58.216565
50.989519
38.569197
38.606354
33.536388
26.123683
16.118718
11.114372
13.464033
6.131181
-1.132907
8.270687
5.840947
5.677691
1.160497
5.375364
1.087415
1.048353
-0.904060
4.589316
0.905969
-0.768111
-18.925314
-39.521654
-40.220997
-30.853686
-28.468813
-21.065683
-17.526648
-9.701884
-4.738284
-1.702189
-0.839547
-0.374055
-0.007398
-0.437678
0.348486
-1.954192
-1.626839
-3.713813
-1.015231
-1.176095
-2.195043
-2.408039
-3.732646
-5.246935
-9.446989
-4.748389
-6.476519
-3.952260
-0.879097
-2.698941
4.564220
-4.875243
24.915280
59.008326
80.029287
90.514278
93.524946
107.738480
100.951732
115.170315
94.057314
67.679962
48.154380
31.019962
35.824177
33.443853
8.637955
16.007671
11.030668
-6.200552
-3.724896
-6.111803
-6.046721
-13.019319
-10.440870
-3.456789
-12.229877
-13.968826
-9.380883
-11.052185
2.825842
-2.784735
-2.638170
2.401448
-3.845762
-3.544018
0.609705
-2.964195
4.713961
2.264733
-1.197543
3.486218
0.765979
-0.618433
0.943505
0.388075
0.040545
-0.315869
-0.327932
-0.810957
0.228067
1.366516
2.261780
-1.110738
-3.821895
-2.350000
-0.500745
-2.853149
-1.847704
-1.981697
0.756024
-2.309629
-0.793035
-0.840617
-0.872339
-0.911990
23.088261
63.484278
86.608196
97.500884
98.644348
110.097883
112.600108
102.993116
99.313318
75.172983
63.287665
53.679771
46.198799
31.176898
23.619090
26.123683
16.149956
6.209785
8.599827
6.100948
-3.526152
1.236099
-1.092123
-3.321635
5.526528
-3.134749
3.134518
8.969493
0.999212
4.577223
-7.654496
-2.366048
-3.693703
4.844260
0.664041
-6.234903
0.539297
1.337102
0.390612
-1.503527
0.249488
0.547993
0.574420
-0.148098
-0.021449
0.062079
-1.144786
-2.044784
-0.707802
-3.729096
-2.394840
-2.741678
-4.827243
-3.435356
-5.927284
-0.612779
-5.734529
-6.126724
-9.506138
-10.285580
-2.573824
2.625721
32.488437
53.397689
83.327522
124.088417
148.369225
150.082024
143.879280
143.520162
141.357737
134.188853
97.148893
77.681051
60.576091
63.349322
36.027531
28.586704
33.412302
21.052458
13.509095
8.524083
10.904962
-3.699873
-3.656975
-3.596205
-10.483270
-12.540477
-7.754325
5.282447
-7.291873
-3.052842
-4.845660
-6.457809
-4.372336
0.778206
-2.302143
-2.144854
-1.962541
-5.342334
0.498850
-0.479620
-3.476757
-2.246194
-1.319392
-1.876177
-0.141790
-0.512000
-0.028598
0.054182
0.113404
-1.147103
-0.645286
0.284769
-0.307018
-1.858690
-2.934257
0.491416
0.548117
-0.548327
-5.588317
-1.981697
-0.677479
0.821546
-7.536734
-6.117885
-0.876870
-2.838552
22.950339
63.265115
80.017347
101.657560
114.024654
114.612680
126.687296
114.647382
94.227858
65.513139
53.473707
58.160263
45.888442
28.605170
28.494831
28.467247
16.118718
13.609519
-1.154433
8.490113
-5.895719
-1.109116
-1.088724
-10.031136
3.335449
7.494255
-0.968636
5.000480
-0.896130
2.758230
0.895889
-5.577583
0.788785
-3.374056
3.156288
2.896287
-0.480353
-3.025693
2.574040
0.311230
0.730657
0.189006
0.113404
0.444142
-0.148398
-0.978123
-0.139324
-2.057725
-0.252756
0.278247
-2.411356
-0.414273
-4.853126
-1.472800
-1.640813
0.554278
-3.194941
0.646288
-8.062660
-8.748568
-2.591698
-2.727539
-2.834782
4.813282
35.066235
76.014553
80.292541
102.297143
108.389051
101.699834
105.705293
102.940929
89.680091
63.051067
63.230020
43.454308
28.640438
18.603117
21.072300
11.103996
6.116518
3.619424
-6.176886
-1.268711
-15.588843
-10.642268
-5.839642
30.414976
60.603160
56.599393
58.808298
40.703216
40.981737
31.833758
29.992474
12.110402
14.264242
4.806997
3.150933
4.018032
1.521607
-4.059750
-1.147497
-0.330432
-0.775722
0.184020
0.376089
0.301192
0.011584
0.302326
-0.839547
-0.497187
-2.896963
-0.818067
-2.965448
-0.363663
3.021333
-0.449764
1.629365
-1.720762
-3.155038
-0.646890
-3.593074
5.578494
-4.196852
-6.217633
-2.736294
-2.863235
25.151363
67.565638
84.565621
95.311065
116.528104
108.115543
117.457256
107.623926
106.560896
75.830472
65.767066
60.984658
38.420568
36.154537
26.098491
26.048108
3.766536
6.185599
-6.025945
-1.144236
3.638671
3.583872
3.496193
-3.307530
3.328142
1.120176
3.123558
3.003000
0.991652
-0.848548
6.000468
4.039081
2.272343
3.434429
1.892401
2.872101
-2.480227
0.456135
1.095985
1.487446
0.708737
-0.164272
0.110884
0.124212
-0.020960
-0.892975
-1.015742
-0.582685
0.233905
-1.490972
-2.469162
-1.999796
-2.218709
-3.435356
1.590614
-4.178582
-1.948242
3.394204
-5.177808
0.754926
-9.421535
-9.900377
-4.727329
-4.928492
31.088871
63.866911
91.304128
100.841245
107.944379
120.173566
103.430462
105.466494
87.553777
65.402366
55.941279
31.019962
28.586704
23.514925
23.514925
18.550615
-3.782092
8.499682
-6.170969
-3.678424
-1.253915
-12.941669
1.087493
1.065321
-5.526064
-5.384067
-11.401611
-8.988688
-2.902702
-10.042735
-11.217854
-7.271510
-3.768847
-3.490769
-1.919644
0.537649
-2.579619
1.304235
-1.875549
-0.943736
-2.743634
-2.096550
-0.126994
0.301192
0.033758
0.193624
-0.109892
0.186486
1.154887
3.187458
0.360371
-12.034779
-27.416560
-30.203408
-31.458176
-36.982228
-33.577933
-30.494343
-27.012020
-35.711188
-26.365424
-24.118436
-12.037113
-2.880866
31.212067
71.885306
95.795950
95.831891
109.743537
96.795055
106.238668
103.501975
91.961575
85.518727
60.632485
55.957587
43.537264
36.119773
28.660339
26.148875
16.118718
13.490485
8.574508
-1.145369
-1.128376
3.569259
-1.080794
5.641412
-1.030946
1.116396
5.163736
1.038273
4.758618
-0.847415
0.890848
-0.751118
-5.095467
-3.356298
3.095823
0.589699
-0.471289
-0.402182
1.070412
-0.277562
2.079882
1.516581
0.658279
0.223722
-0.245892
-0.931800
-1.488292
-0.982148
-1.758968
-1.502805
-3.934267
-3.656955
-3.179356
-1.497823
0.515478
-6.587310
-9.728989
-0.727444
-3.733347
5.522760
-4.342753
0.851370
0.890170
2.877597
33.252440
67.906388
82.975848
99.248418
102.970944
108.173787
109.040586
108.308872
84.762614
70.476611
46.027819
36.095315
31.107589
23.625845
16.098624
16.083465
3.633225
10.967815
-3.724896
-8.514067
-3.642676
-10.610468
-8.076390
-12.449886
-3.345972
-7.465293
-3.145785
-6.969809
-6.672518
-9.965085
2.529111
-4.058758
-5.252131
-3.484852
-3.147608
-1.755205
-5.681393
0.414600
-0.390847
-0.325500
0.230579
-0.564811
-0.638988
-0.301744
-0.002266
0.063002
0.835508
-1.180353
2.499707
-3.671552
-0.317214
-0.365929
-2.136902
0.504016
-0.500745
-0.558523
-1.897070
-0.644624
-2.161531
-8.710526
2.604792
-0.845149
-6.500253
2.973774
47.631735
78.400835
86.511210
104.524746
114.508322
117.773079
122.200372
107.730485
106.560896
72.851656
18.678607
-25.941717
-30.805874
-35.849135
-43.112586
-30.895426
-33.146727
-37.918812
-30.417816
-27.622153
-22.467176
-15.119978
-5.635265
-3.289900
-3.201746
-0.996958
-0.965237
1.035753
4.758618
4.528850
4.256757
0.830366
2.235810
7.446219
1.874135
-0.529068
4.484747
3.012893
-0.336473
0.307450
0.231847
-0.155208
1.110981
0.157210
-0.075070
-0.246658
-0.692237
-0.976232
0.233905
-4.494370
-4.569671
-3.656955
-4.049150
-3.476646
-3.840001
2.930831
-0.679358
-9.032359
-5.194324
-7.292709
-7.769703
-8.214898
-14.082359
2.884498
37.419232
70.075741
85.132379
89.942921
106.106079
106.697917
104.448478
120.254230
92.138982
63.110719
65.712329
33.443853
28.532969
21.092142
13.573180
11.093521
13.483461
1.158440
10.894487
1.141812
-10.790666
-8.258067
-12.682836
-3.435341
-5.526064
-13.770145
-11.336902
-6.961551
0.894604
-2.741838
-4.295420
-7.250310
-6.709717
-0.717580
0.586426
-7.366492
-2.561869
-1.333384
-1.857799
0.897093
2.178897
-0.905233
0.338135
0.046559
-0.130985
-0.440554
-0.366720
-0.172202
-1.166121
0.308710
-2.410580
0.414553
2.249309
-3.408061
1.651285
-4.139547
1.972774
0.723263
-0.696738
-2.362522
-9.391650
0.952590
-2.753925
10.818840
43.634133
74.477549
93.956919
109.397625
105.665963
122.560823
113.282532
108.369835
106.456731
75.099928
55.957587
50.793028
38.643511
26.199258
16.165575
23.505098
15.978148
3.744617
13.424355
-1.143104
1.249960
1.228539
-1.086458
-1.058135
1.144116
-0.996958
-7.057180
6.928810
-0.888199
2.707084
4.250710
7.138763
5.156520
4.759865
0.646401
3.932796
7.457033
2.970696
3.195653
0.876788
-6.702446
-7.731029
-4.754985
-1.773928
1.081481
3.028146
4.202647
5.268984
2.717199
2.106620
3.174067
0.382452
-0.478387
-2.526370
-0.573324
0.565363
-3.301439
-4.855744
-2.280694
-7.292709
-4.348669
-9.952144
-4.745079
6.816013
35.598162
64.080990
80.906801
94.387383
94.690366
101.496231
106.642581
98.472808
82.146954
53.301401
55.836027
40.813320
26.070811
21.092142
8.637955
23.448373
13.496278
-3.739195
-6.147303
-1.265012
-1.253915
-5.892891
-5.774560
-7.886454
-3.328098
-9.518682
-3.106463
-12.853154
-10.405102
-8.108899
-11.065022
-4.011426
5.107943
-3.402020
-0.649767
-2.857697
2.484835
0.404623
-0.373585
1.453831
-1.684646
-0.181244
0.338135
0.134564
0.040186
0.362792
-0.387877
-0.178999
0.734310
0.902361
-2.443829
1.205584
1.366328
-2.456549
0.574578
0.632540
-1.914700
0.724523
-5.178590
-0.764712
-4.256046
-8.104130
-4.658565
12.713795
45.876596
74.562569
85.038583
109.634674
107.936871
115.679396
116.130727
110.476609
92.500412
77.937115
56.065405
36.154537
28.522416
28.605170
21.221309
13.741778
13.596293
8.650464
15.853197
-1.140838
3.616752
-8.096223
-3.371001
5.629319
5.484202
1.100015
1.064734
-4.830227
-0.876870
-9.679818
-0.788504
3.936290
2.217544
0.691762
-1.798337
-1.614978
-0.459960
2.886301
1.037533
3.623588
1.100468
1.071814
0.747458
0.073066
-0.110817
-0.837390
-0.780986
-2.251850
-2.873051
-3.416601
-3.296559
-5.394962
-5.991006
-2.526370
-6.173176
-10.402542
-8.573864
-9.078209
-12.778554
-12.196486
-14.855069
-13.676985
-4.804244
0.932295
33.522472
104.034970
139.351891
159.335436
170.557593
170.219797
169.483093
152.877041
121.876156
95.498805
63.289671
43.617977
41.006200
31.019962
26.070811
18.498113
13.509095
8.491549
-1.276109
-8.505809
-5.999389
-3.571181
1.086384
-7.919487
-5.520148
-3.210131
0.962226
-10.819235
-12.195977
-2.727539
-2.570250
5.498359
-2.227073
-7.467343
-0.648534
-1.719458
1.466401
-2.141794
1.755024
-0.310705
-2.130574
0.851447
0.334685
0.202725
-0.038788
-0.218621
-0.662972
0.199086
-0.719335
2.076111
-1.734383
-2.743073
-3.939657
-2.426953
0.578358
0.628760
-3.202393
-2.038116
-5.153653
2.455007
0.907229
-0.857611
4.752572
6.878173
47.913247
83.430512
100.432770
103.216384
109.187983
113.808112
113.737483
96.578858
91.961575
72.851656
50.940396
38.569197
38.494883
28.605170
18.696620
23.527897
11.125205
-3.596675
6.125134
3.664244
1.242400
-5.735895
-14.686208
-9.966903
-5.333376
1.100015
9.153649
10.726258
-2.736294
4.438152
5.890755
-5.452898
-0.682010
-1.957014
3.059544
4.972219
0.506536
3.693958
-0.325144
-0.262835
1.076282
0.463967
0.423257
0.015120
-0.177497
0.090902
-0.159051
0.193997
1.268482
-1.544221
-1.840049
-2.070795
1.324937
-1.540720
-2.798531
-3.064777
-4.632776
-4.913550
-3.810263
0.769337
-4.384169
-8.214898
-4.798328
6.824147
39.991847
74.844358
85.686988
104.038371
101.747853
111.946436
104.244875
103.239308
82.617261
70.543287
51.058804
36.027531
33.475404
26.070811
23.492741
18.515614
6.104933
-3.742770
-6.147303
-13.291094
-8.381938
-5.898807
-12.618127
-14.595436
-5.466899
-3.210131
-11.246311
-8.861490
-6.606454
16.859758
36.456147
38.626571
37.401154
34.478256
27.786449
22.964476
19.517116
16.553068
12.479815
6.205000
3.928734
1.550369
0.921841
0.276545
0.025201
-0.225674
-1.506332
-0.941184
-0.719335
-0.878012
-0.334208
-0.376125
-3.982479
-0.465625
1.654938
-1.759550
-0.610637
-6.198536
-5.178590
2.462314
0.904709
-0.854212
2.871482
10.858518
58.095997
77.098249
87.190110
91.726731
110.788713
115.916444
115.666204
108.369835
92.051381
72.851656
46.021452
50.694782
36.050245
26.022917
28.467247
21.078474
11.092706
-1.156698
-3.561413
-5.925316
-3.476786
-12.692481
-5.611588
3.386595
1.132776
-5.138036
-0.956174
2.948201
-4.581613
-2.577617
-4.072545
-2.288473
-0.675213
3.319545
0.630020
-2.693325
-2.338162
-0.373859
1.019266
2.936164
0.621058
-0.135949
0.080643
0.132260
-0.218913
-0.726710
-0.482592
-0.654180
-1.348975
-1.597470
-1.863715
-2.964646
-3.294969
-6.709316
-1.715883
-1.869597
-4.665808
-0.741006
-3.833929
-4.159340
0.829199
-11.905597
-4.839744
6.816013
54.305661
77.295697
94.268314
108.629126
100.376413
118.902530
107.267440
93.787034
87.802982
67.937300
50.962919
41.006200
33.538505
33.570056
16.053147
11.062094
1.168417
6.064388
6.012259
1.139595
-6.005305
-17.554480
-8.068132
-5.626646
1.027631
-11.621619
-3.092164
-6.862454
-6.556905
-8.013500
4.124016
-0.822381
0.686196
-0.695387
3.006129
-1.698009
-3.418840
0.387994
-1.733551
-2.554568
-0.240426
-0.168915
-0.303854
-0.029591
0.084026
-0.420277
-0.132550
0.205387
-0.234512
2.185824
1.106945
-0.387454
-11.343248
-27.548343
-31.481042
-33.531396
-38.793715
-39.930499
-37.073797
-30.195106
-25.042439
-26.427913
-17.932932
3.010307
50.008593
79.209091
98.383015
96.561046
99.581834
118.498580
106.984576
101.167727
92.230994
68.048842
51.087765
51.038642
33.439275
36.154537
28.550000
23.505098
6.215832
15.978148
6.131181
-1.135173
-3.483838
1.220979
-1.072863
-7.672293
-1.017351
9.402802
5.060945
2.951854
0.972751
-0.828155
-0.779440
0.810206
0.747204
-1.918227
-0.557390
-1.590294
1.428434
2.759709
4.185869
2.372366
1.819897
2.264967
0.523248
0.050637
-0.248495
-0.109733
-0.496891
-1.511226
-1.907614
-2.254452
-2.659098
-3.837152
-5.137843
-4.674542
-2.875447
-6.807318
-0.700319
-7.829710
-6.889914
-2.534502
-11.447101
-6.457809
-12.440508
4.894373
46.205497
83.560989
98.924516
98.034975
104.887673
110.241495
102.443630
99.136243
72.675823
58.265710
48.610387
36.095315
26.144388
23.581477
26.046285
18.515614
-1.294603
-1.292137
-11.045063
1.138486
5.873247
-8.208519
-1.204597
-7.869938
3.188129
-5.283485
-1.062807
-4.904826
0.876867
-0.929648
-12.548986
-0.819915
2.118519
-0.695387
-3.058860
-1.690860
