391.983234
365.244846
190.186373
85.882588
41.213604
20.345954
7.398543
1.434116
-0.158392
2.647089
-0.536719
-0.069470
0.135952
0.178839
-0.079853
-0.075929
0.327913
-1.886231
-1.925346
-2.351229
-3.390725
-1.407040
13.272092
47.359540
76.154472
99.382031
109.024355
108.070334
130.062459
155.004310
145.817655
141.498357
127.901529
136.949423
142.566209
143.759378
139.375889
126.959378
126.945088
131.757556
128.615949
123.904423
97.490600
95.067298
68.412182
61.558513
57.171630
51.849972
51.749972
37.484691
29.842799
22.197625
12.444542
7.512657
-8.712855
27.451918
49.161051
57.716485
49.931613
48.162607
41.255493
17.999764
7.076296
9.759763
6.239101
10.933736
1.494472
-1.889929
4.106245
4.349429
4.939089
2.312255
2.494977
0.921005
0.471920
0.052569
-0.309408
-0.480802
-0.395167
-1.407806
-1.732684
-2.018886
-3.856588
-5.190292
-2.993521
-0.235087
-2.462777
-3.859863
-8.024073
2.436729
-6.198606
-8.138903
56.810125
100.531175
128.729190
128.946086
142.896101
137.734233
142.048414
145.723457
141.048891
132.578090
130.256952
127.290799
119.042032
110.778097
83.962617
71.943091
59.097733
54.437439
47.024755
41.612336
39.319213
36.754770
29.062863
16.600962
18.793787
9.070723
6.590558
8.728092
10.827965
1.699398
-9.095340
-0.474619
-0.459058
1.460564
-2.223550
4.702810
-0.373471
-0.347350
-1.692729
-2.799339
0.883687
1.810625
2.437513
-0.176732
3.000795
-0.616342
0.292113
-0.843136
0.228443
0.012860
-0.081353
-0.382981
0.075470
1.893657
-3.178322
0.150939
0.940211
-3.211867
-0.730365
-2.919995
2.570621
-0.965383
-3.741244
-5.527606
0.366410
34.066151
82.416487
98.279634
114.239141
125.007882
131.930596
129.642799
120.048981
124.083621
114.661925
114.377303
116.648947
102.933620
76.049531
67.015252
57.718727
57.609307
47.645037
37.771655
27.746872
20.297201
17.474157
0.561100
0.557271
-4.183654
-4.104560
-8.606384
-8.402315
-5.937758
0.483442
-3.521763
-11.029050
-5.070885
-3.026385
1.984891
-1.153398
-2.443587
2.796668
0.263596
1.236204
-2.437675
0.893781
-1.044873
0.577476
0.077657
0.483634
0.092860
0.025721
-0.638092
-2.956829
-10.166627
-13.921419
-18.589852
-20.217538
-20.402669
-18.647936
-14.909254
-11.019291
-6.085395
-7.904756
-3.055767
-3.232061
-8.138903
-12.080899
-7.495047
-0.431826
20.511918
67.153932
98.196267
120.093998
125.112796
107.227123
115.662351
117.195501
121.737054
111.828535
90.541842
85.866462
69.376009
41.772846
36.790111
31.593801
31.807685
31.716021
19.146984
21.443862
4.310810
1.857396
8.971541
-0.546868
-5.144586
-7.309761
3.858154
7.952662
-0.475731
5.451286
7.051000
3.160132
-2.081997
-6.745542
4.106679
-1.675035
-0.287884
-1.403726
3.768949
0.663225
3.537059
-0.143386
-1.079134
1.000175
0.847563
0.728823
-0.016651
0.162506
-0.664820
-0.262136
-0.807591
1.245884
-1.870622
-3.671415
-5.880859
-1.715090
-2.952585
-5.613784
-8.669885
-7.809980
-2.622589
-1.227519
-9.847366
-8.555407
0.430395
53.035037
85.628837
105.871294
110.271317
108.749126
107.556722
100.586086
105.308281
99.719706
81.310675
74.468781
52.449971
40.136801
37.664044
35.124256
25.228585
25.156297
12.801861
2.986042
2.971533
-9.023395
-4.175329
-8.739473
0.528287
2.745185
-5.983383
-3.675788
-5.566241
-1.477000
4.079350
-4.777582
0.376801
-1.162437
-1.068430
1.549608
0.265784
-2.835263
1.082404
-0.574891
1.963795
0.612298
-0.282022
0.776384
0.025157
-0.070899
-0.433171
-0.544909
-0.448249
-1.041739
-0.704812
-2.173590
-0.946631
-2.807876
0.744061
-6.607183
-1.433216
2.225207
-0.314560
1.107824
-3.461778
1.282357
1.352170
3.244741
9.070845
52.848569
90.078331
107.400754
116.835540
120.438398
116.148327
116.957298
114.657573
119.275447
104.805377
80.613441
53.916506
9.368272
-15.466475
-35.217728
-35.388026
-37.728796
-40.050419
-29.800429
-29.654062
-17.377109
-14.795316
-19.228005
-14.288219
-4.989661
-2.680645
-0.487958
-2.494858
-4.369960
-7.920441
4.901520
1.293380
-1.928649
-1.801842
-0.311782
-1.509890
5.282769
2.689213
0.648527
3.343091
1.049147
0.820704
0.940562
0.165347
0.064302
-0.088726
-0.814954
-1.201350
-0.990713
-0.365182
-3.904636
-1.190572
-2.176961
-5.066300
1.207185
-5.175909
-8.128017
0.299144
-3.819458
-1.146167
-2.859871
-3.051362
-10.472165
-3.334435
27.918421
71.601905
86.805664
102.662725
102.884519
98.549930
115.705360
101.242922
95.714015
73.828036
62.033869
52.549971
35.157771
32.687676
20.355359
20.335973
7.984577
3.026668
2.994748
-6.661239
-1.836759
-11.261250
-8.739473
-15.459170
-6.159365
-8.136139
-9.902715
-3.555066
-5.338117
-6.893980
-1.337797
-4.490796
-1.155206
-8.054467
-3.493566
0.266331
1.262321
0.205080
1.671692
0.751589
1.621273
-0.670217
0.310502
0.478397
-0.002949
-0.272455
-0.765784
-1.144809
-2.404107
-2.359927
-2.815707
-0.928937
-3.707009
-0.223416
-0.245646
-2.590991
-5.327560
-4.385857
-4.672059
-1.908006
4.643197
3.105137
-2.273683
3.388576
35.207025
73.784769
101.168447
111.288564
111.716849
109.056156
119.428667
110.185608
109.278200
85.533646
63.823923
54.281159
44.136343
36.719429
34.101364
21.737613
31.441026
19.165573
9.187940
6.729655
-0.559095
11.364229
1.785746
-2.810402
6.179890
1.668166
1.603864
7.610030
3.452032
1.429332
3.134750
-0.386809
1.203358
3.974206
2.347890
3.358204
4.147647
-7.880330
-21.469886
-19.525891
-15.066587
-10.902355
-7.023029
-2.312607
-0.618634
0.169432
0.346955
0.905781
0.087501
2.043156
-2.280248
-1.232201
-0.621895
-5.174961
-3.753093
-3.043834
0.277815
-2.306213
-6.568127
-10.167990
-7.803160
2.135789
-8.645227
-7.115794
26.019266
64.134614
87.291155
105.517889
103.537754
98.753546
102.011395
108.541333
100.011000
71.936910
62.093288
42.609251
35.191287
22.893339
15.395476
22.806375
10.415112
5.451399
3.000551
-6.700347
-6.635168
-8.899179
-6.420079
-17.743526
-1.702979
-3.800673
-5.768294
-3.550903
-7.213392
4.089863
-3.072176
-4.484279
-4.171422
0.324300
-3.487048
-5.546418
0.237893
-5.134213
-2.053122
-1.701158
-1.355712
-0.661892
-0.191630
-0.099431
-0.001808
0.215752
-0.289002
-0.427606
-1.477423
0.433576
-1.474461
-2.475263
-1.939236
-1.179602
-3.411222
-2.569622
-5.357945
-4.409062
1.102312
-6.563230
-7.079780
-5.708575
-11.424609
-10.029632
27.182247
71.721793
95.136315
104.140627
111.835950
114.694377
117.195501
117.174705
104.395981
75.766867
73.945363
53.968599
49.152026
21.758595
21.863507
24.217015
16.730530
14.106781
6.756150
11.581016
-0.559095
-5.278142
-2.869382
-2.801555
-0.515746
-4.802682
-8.821872
-6.505300
1.486284
-4.124216
-5.693105
-2.043660
-1.905057
-0.330677
3.636398
0.922268
-0.249536
5.369411
0.609946
1.848006
0.420716
-0.099481
1.136095
-0.040015
0.038581
0.013672
-0.320539
-1.100198
0.493321
-0.890848
-1.694640
-4.129103
-3.873511
-7.097410
-6.837097
-3.102495
-10.653857
-8.829258
-6.702858
-8.747178
-7.825615
-11.809531
-6.885107
-14.725298
16.206743
72.265654
138.407643
160.555383
160.364259
162.247623
165.224644
152.032888
134.879157
101.467471
77.226313
62.390385
55.129485
35.325349
37.771655
27.826225
22.762893
12.814182
5.435628
-4.266911
0.557271
-16.032912
0.540318
0.525552
-6.133294
0.498208
-9.913942
-3.546740
-11.096963
-1.399263
0.401410
-2.880685
0.351097
-1.073853
0.293675
-2.027303
-0.791831
-1.561065
0.925702
-2.386719
-0.388684
0.856874
0.304698
0.262845
-0.001808
0.215752
-0.053909
1.298394
-0.103927
0.994151
-5.516231
-0.946631
1.527186
-1.185500
-0.245646
4.346013
-2.799339
-5.763083
-1.757607
4.298766
-0.388476
-2.155722
-5.979307
-4.247088
23.374202
77.639317
101.625706
108.501119
105.094459
114.932579
109.795170
109.857023
87.908304
92.371807
58.870215
48.962797
44.178864
39.092807
29.091024
19.221341
19.128395
16.584766
9.178923
4.260045
4.230432
4.171206
-2.869382
-9.642276
-11.594806
-2.654104
5.702985
-4.482147
-0.446831
3.240511
-0.404038
1.252962
-3.419040
-4.594707
-1.598361
5.647885
-0.246758
-1.141265
-0.973172
-0.152278
0.413367
-0.093368
1.334955
0.115743
0.099183
-0.059659
0.045391
-0.860356
-1.160177
-0.403147
-1.128130
-2.768239
-0.634550
-2.581067
-6.916783
-2.014815
-3.415352
1.627959
-11.085131
1.892030
0.388285
-11.889217
-6.911725
-3.376063
24.398504
64.575907
94.475381
97.079444
101.298143
106.912802
102.520434
106.766556
88.394957
81.936744
47.418588
42.568670
27.905577
22.915080
20.432903
27.693971
17.814784
-1.880147
-4.300214
-11.564395
-6.641686
-11.250023
-8.695110
-13.066436
-1.701171
38.942267
50.331066
52.508258
48.070306
35.009139
21.114644
11.683501
13.805575
10.014429
2.817695
0.265237
0.235706
2.816295
-2.066157
-1.086501
1.613661
0.449793
0.293091
-0.084968
0.012691
-0.028344
-0.528883
-1.106133
0.356414
1.015304
-1.469119
0.591574
-2.823347
0.747735
0.817548
-0.272323
-4.107389
3.768872
-3.242745
2.783624
2.982454
3.126289
-2.276632
9.196354
31.394996
78.362384
91.295309
107.021120
109.822109
119.551255
122.896212
105.684926
101.755262
73.375457
61.287950
51.787398
41.451825
46.710358
34.266105
34.002519
24.123513
9.214989
9.160890
-2.984393
-0.555760
6.530945
1.776560
3.993528
1.706747
3.782006
-0.481844
-2.447674
-8.092625
3.227819
3.045911
1.251124
-3.376302
-0.321229
6.104279
2.064451
0.806525
0.690782
-0.931886
0.488692
-0.120044
1.086283
0.735228
0.364302
0.039742
0.116075
-0.391307
-0.570309
0.972525
-2.022944
-1.136455
-3.570367
-2.320353
-3.522407
-7.012407
-3.154638
-4.693585
-9.036443
-3.943297
-7.432650
-1.285370
-3.134619
-3.238690
2.356332
28.354123
69.024077
90.502023
93.187248
99.579344
100.586086
100.447300
97.206371
91.097779
69.475928
70.007801
50.360729
37.807526
15.498210
15.483534
27.746872
17.780721
3.026668
-4.304377
-1.856645
-9.032267
-1.802410
-8.721728
-3.979675
-12.754037
-14.502933
-5.690080
-3.505111
-7.195647
-8.634000
-9.860949
0.371332
-2.635078
-3.799905
-3.474012
-2.014815
-2.815710
-0.661667
-0.560428
-1.086501
0.112657
-0.990713
-0.416284
-0.081353
-0.037396
0.513948
-0.312595
0.630334
-1.523834
-1.292824
1.201443
0.598923
4.176012
2.675965
-9.876049
-26.176743
-33.397600
-35.406478
-43.916346
-36.361097
-29.156068
-34.334894
-29.911564
-8.112881
27.445832
78.814301
89.660580
102.520261
101.028767
105.585414
103.799565
112.593212
97.739143
70.635035
56.393207
48.868183
36.542723
34.200208
29.006539
24.146888
19.165573
16.633354
4.302349
1.861071
1.833513
-0.545757
-0.535753
-0.520747
1.701235
-2.621665
-0.476842
-2.438827
-6.188157
3.206667
-2.102640
1.240101
-4.842233
-1.707474
-2.842077
2.030607
-2.281140
-1.085234
1.324125
-1.383643
1.857424
1.802759
-0.300798
-0.132705
-0.017745
-0.195653
0.053047
-0.932052
-0.341681
-2.093924
-1.157270
0.940211
-1.523600
-0.726749
-5.052405
-2.035629
-3.487048
-5.030742
-3.975887
-5.900253
-8.027711
-4.914456
-8.802413
0.447895
38.405886
77.770674
99.400599
99.593863
100.100156
100.382470
100.546753
93.004431
90.922422
66.822864
54.972421
42.649831
35.157771
27.879126
25.373161
15.468858
20.374745
-1.883763
0.564381
0.559459
-6.615615
-6.498293
-13.324505
-8.553149
-8.260354
-10.149721
-3.625834
4.436818
4.242313
-4.973117
-4.738475
0.369691
-5.580841
-2.410284
0.287659
2.528566
-4.738034
-4.120517
-2.732749
0.734177
0.110470
0.082032
0.051407
0.130585
0.025383
-0.288481
0.194742
0.277415
-1.516099
1.589682
-0.159503
-1.736231
-2.862023
-3.148225
-3.504044
-0.274546
-2.836734
2.415577
-1.804791
1.210706
4.722681
1.366867
1.416471
9.219174
43.654137
85.465021
104.570255
114.347987
110.405649
108.340188
113.400112
108.313980
104.395981
71.048105
68.777940
51.538898
46.710358
41.451825
29.147348
16.698138
-39.856188
-56.598772
-63.593551
-58.397191
-57.817278
-49.846391
-23.556796
-16.165558
-7.085440
-11.118993
-2.515501
-4.407356
-6.103070
-4.022714
-0.395701
1.221729
-1.828383
-3.029055
2.212516
2.009455
2.795191
-0.200074
0.565854
1.078760
1.311488
0.986928
0.376508
0.565928
0.002734
-0.228956
-1.178895
-0.977677
-2.223058
-1.015733
-3.884616
-1.373737
-1.544414
-4.592075
0.247737
-4.427408
-7.321008
-1.043120
1.799170
-4.373475
-6.361626
-12.032653
-5.142581
4.310653
40.498221
78.209065
93.052310
102.449029
98.244507
107.239419
101.044017
100.011000
88.906897
64.616044
52.599971
37.771655
22.915080
22.936821
20.452289
10.494845
7.954130
-1.878339
-4.304377
-11.530712
5.335747
-6.524365
-8.686237
-6.244097
-3.888093
-3.759045
-11.816840
-5.448920
-3.355249
-1.381185
-6.379371
-7.544925
-2.614264
-1.034081
3.973259
-0.864144
-4.738034
1.038876
2.298706
0.137267
1.046122
0.772763
0.272777
0.110272
-0.006113
0.113906
-0.327340
0.290276
-1.089819
-1.895123
0.532784
-0.183401
1.565260
0.755084
4.084531
-0.276769
0.992081
2.445190
-0.341793
1.223567
-3.814366
-2.205856
5.139973
11.194324
54.001628
74.811936
104.570255
107.371244
105.877911
104.028561
118.148309
113.264742
87.394721
75.472341
63.638927
41.451825
36.542723
36.578064
34.167260
14.272419
19.072627
11.626656
-2.990291
6.670042
-2.934260
8.818258
-2.819249
-2.751421
-2.695390
-0.490181
1.563446
-2.421133
8.922517
-2.214703
4.682939
4.398121
5.572273
1.038011
2.174442
1.984072
4.712276
1.497573
-0.166172
2.863877
2.733016
1.973845
1.228477
-0.192321
0.449663
3.282582
7.645676
10.068320
11.379616
13.677423
9.954107
6.513715
6.335659
5.174958
1.331966
0.274534
-3.565262
0.316097
-1.131704
-6.024469
-1.321526
-8.600317
-1.428189
6.279577
42.849977
86.514370
104.609232
109.560686
98.957161
107.892654
108.008745
105.167436
86.702191
69.808349
47.690327
40.289703
37.735785
20.471676
25.349065
12.962038
5.514482
3.026668
0.566021
0.560553
0.556178
-1.802410
-1.769869
-6.237579
-6.035526
-8.011923
-11.776092
0.457739
-5.188206
-6.734274
-6.405989
-5.953488
0.340707
-2.376982
-4.587114
0.258675
-2.717942
-2.320353
-0.540542
0.135626
-1.270980
0.751736
-0.159089
-0.234642
0.054996
-0.188736
-0.598332
1.053165
-1.084477
-1.324878
-2.998019
-0.970223
-1.998001
-6.204487
-2.436066
-3.890804
-4.169271
-3.082478
-1.831332
-3.595334
-0.400703
-0.419043
1.433006
9.253403
46.258775
77.167342
100.729514
107.954784
103.723430
104.135696
108.542681
108.742522
85.284034
70.841570
48.868183
51.240698
46.530703
34.134312
24.146888
21.653684
9.233023
1.877605
1.861071
-0.558539
-5.310196
-2.881178
4.040062
-4.984319
-4.850762
-6.837914
-2.503705
-2.400490
-6.041189
-5.754986
2.978224
-1.931598
1.122521
3.715882
5.796213
4.138630
1.730247
3.959224
-0.875854
2.191040
1.258498
0.249857
0.157998
0.131143
-0.168579
-0.423660
-1.038090
-0.670217
-0.370606
-2.209268
-0.540542
-1.415366
0.207268
-5.772594
0.252112
-2.123049
-2.268748
-3.819458
-1.142551
-10.901105
-4.797135
-10.390669
-5.155617
0.452817
45.077386
82.872076
102.440271
129.863175
156.020584
167.577295
172.991451
166.946845
128.537050
106.592745
72.831819
55.286549
47.780907
30.361303
32.905802
20.316587
15.307418
0.569850
-9.174228
-4.266911
-16.144473
-6.491775
-13.297340
-3.967187
0.508052
-7.958687
-5.637937
-9.341336
-5.201242
-4.920974
-6.299518
-2.768289
-5.483243
-1.021426
-0.929226
-4.143486
-2.659281
-3.929649
0.160236
0.696453
-1.659169
-0.247673
0.608929
-0.052427
0.139097
-0.185787
-0.339136
-0.088922
-1.089819
-0.746098
-0.162838
0.617295
-2.923904
-0.231752
-2.457435
3.318462
0.999430
-1.710423
-0.346794
-1.999425
1.326449
-2.223550
-9.804247
15.224641
56.351394
90.067121
111.622467
107.721368
106.213676
102.228432
116.824582
108.635387
87.737110
66.172814
61.228678
44.306425
36.754770
34.167260
26.593341
36.366018
21.506808
4.323501
4.293888
1.839024
1.820653
-0.540755
-2.816300
-4.973634
-0.502407
-10.981258
-0.469062
-0.451833
1.431169
-3.953264
-3.734232
2.762472
1.109661
2.335198
0.933291
1.945999
3.597633
1.442577
4.551093
2.647089
2.947683
1.460463
0.304591
0.040418
-0.099908
-0.674315
-1.684239
-0.305524
-1.420891
-2.297993
-1.257178
0.187580
-4.333841
-1.769207
-6.383810
-6.940695
-4.924271
-3.806423
-5.642949
-2.864034
-3.051362
-8.667682
-8.982054
2.414370
51.516632
78.998170
96.662794
96.819198
99.568008
110.893539
101.242922
97.964315
81.858485
62.509224
47.916777
32.936962
32.874641
27.958478
27.852675
15.468858
10.435046
5.472426
-11.553167
0.559459
-1.834951
-8.801581
-10.924423
-12.917028
2.690049
-7.914324
-5.624902
-1.495078
-8.858551
-13.828975
-11.363287
-7.421422
-4.014994
22.846674
30.482160
30.782158
29.934390
20.440279
11.238304
8.211300
4.109061
2.913302
0.973385
0.249165
-0.202569
-0.212328
-1.235670
1.119401
0.387647
-1.964740
-3.079046
-1.014458
1.620255
-1.253327
0.848780
-2.719205
2.309816
1.074755
-1.857873
-8.502023
-2.152773
1.396262
-0.436272
17.163482
62.513188
90.169470
105.620626
108.071491
113.622467
111.456764
118.743815
104.293632
90.189881
70.979260
56.175262
54.072786
41.692591
34.068416
21.548773
24.123513
14.175797
6.776021
-0.565208
4.238893
-0.549647
-0.541310
1.756351
1.712258
-2.657053
-0.485734
-2.477164
3.426650
-5.971572
-3.921211
-5.345021
-0.359021
-0.332900
-0.301222
4.499295
1.920616
0.722015
2.212308
2.515638
3.160913
0.327019
0.524574
0.119417
0.153283
-0.137374
-0.148242
-0.227787
-0.310947
0.120861
-1.107315
-4.183433
-3.114269
-3.469171
-3.824074
-4.223339
-0.932842
-3.636959
-3.891155
-4.184458
-2.905662
-11.745782
-3.226201
-5.266420
20.120218
57.974172
85.552976
90.204096
99.266856
106.477311
108.981379
94.512970
96.083567
79.243646
60.146194
47.735617
32.936962
42.771572
20.452289
17.934003
7.999800
12.888110
-6.772043
5.414601
-16.271972
-6.583025
-4.117049
-1.751791
-1.719250
-12.523133
-14.200124
-3.592531
-9.262743
-7.035941
-3.130456
-6.290646
-4.295261
-3.975887
-1.005156
-0.916572
-3.004727
-2.581067
2.587947
-0.513425
-0.961616
-0.765963
-0.231403
-0.135588
-0.087420
-0.082572
-0.212328
0.528804
-0.501331
0.905312
-2.018886
1.277590
1.446808
4.427029
1.806394
3.126375
2.182903
-0.306224
1.080266
-24.667329
-41.182024
-49.186327
-51.145673
-51.550015
-20.128572
26.124468
71.517725
79.631066
95.593967
100.552556
109.907092
102.656048
93.889936
87.394721
58.528938
46.351048
46.575617
33.903675
29.034701
26.644878
16.665746
19.035448
-0.565208
1.862908
1.844536
-2.898872
-0.537976
-0.527416
3.913149
3.815849
-0.481288
-0.464616
1.480773
8.751369
3.100906
1.265822
-3.424382
1.091289
4.859960
3.272096
2.947536
0.710991
-0.967274
-0.802129
-0.663526
2.318923
1.346364
-0.035569
0.029613
-0.234642
-0.554017
-1.792900
-0.753474
-3.096827
-3.008988
-4.237763
-2.307318
-2.581067
-3.886182
-4.223339
-4.649222
-4.968634
-5.332409
-5.776037
-7.859297
-10.105435
-5.077403
0.440239
12.313446
60.371933
96.185302
90.495390
94.679040
92.753448
102.113203
97.395857
95.436851
82.093261
57.773436
55.181840
35.526442
27.852675
13.060609
15.483534
15.468858
5.509225
0.567115
5.419857
-4.258586
0.551256
-4.129538
-6.302758
-8.420060
-10.329362
-7.869962
-5.605348
-3.417692
-3.271992
-4.855796
-4.575528
4.955157
-3.930262
-1.003348
0.275628
-1.881604
-1.631833
-0.603816
-1.169758
0.126329
0.940984
0.066719
0.525201
0.046430
-0.192321
-0.238869
-0.386320
-1.330454
0.922234
0.486855
2.768103
-0.195072
1.662560
-2.297167
-0.263986
0.949826
1.021476
2.479033
2.711707
-5.352756
1.341147
-0.424601
-8.052111
21.233443
67.125589
92.906372
106.554289
120.824419
107.332893
119.550161
116.241042
106.732348
87.822707
66.172814
58.756456
51.538898
41.532081
41.532081
36.542723
33.903675
19.035448
9.169906
4.264275
1.839024
-2.904770
1.774723
-16.338637
-64.710115
-64.970146
-47.925482
-54.417525
-44.311612
-38.972663
-26.537742
-18.197937
-6.441689
-8.784719
-6.711464
-1.436165
-1.285766
-0.209522
0.578714
-1.399669
0.394995
0.693791
0.702110
0.219982
-0.000000
-0.312857
-0.593124
-0.932052
-2.122010
-1.512140
-3.065126
-5.816950
-3.211867
-1.648485
-0.800870
0.265237
-8.462700
-9.036443
-2.526844
-4.295261
-6.272901
-1.357683
-8.791186
-12.893266
20.337083
58.373077
92.136040
99.274310
90.669100
102.183406
105.099956
101.939092
95.898791
69.409444
62.568643
40.289703
35.392380
25.590026
20.529834
15.439505
25.324969
5.509225
-4.333517
-11.609305
-16.256034
-11.362298
-15.761978
-13.147932
-8.366825
-5.963830
-1.601741
-5.533652
-3.417692
0.428754
-6.565695
-4.549457
-1.171476
3.159393
4.178773
1.462551
-1.881604
1.125932
0.969230
1.461416
0.124142
-0.316371
0.065079
-0.417142
-0.021694
0.251700
-0.696168
0.248020
0.744556
-0.663526
1.768522
-3.160074
0.643016
0.716503
-3.341605
3.126375
2.199824
-0.307335
1.091289
5.806706
6.275570
3.109367
-2.264836
7.150183
33.185537
78.272001
103.986716
110.438106
100.493090
111.572727
112.599910
109.747494
102.055131
87.822707
68.645035
48.726262
46.530703
31.685466
31.471581
24.076762
11.717935
6.749526
13.996356
-10.229726
-0.554093
8.863341
-0.535753
-5.048426
-9.338423
-2.633461
1.581818
-2.444725
-0.442385
-4.076136
4.742552
2.851311
2.652481
-0.321785
-1.562973
-0.267876
3.913215
1.582181
3.605518
0.477669
3.352584
3.378143
0.675615
0.761215
-0.044363
-0.665546
0.278581
6.431174
10.156809
15.690257
13.999992
13.868084
16.666705
8.739907
12.789771
0.267972
1.546706
-1.032273
-1.104586
-1.191362
-6.326136
0.413442
-1.420957
-7.222265
20.433467
77.332282
97.143960
95.393889
95.474662
107.021674
105.412443
104.658397
81.545451
67.143511
47.826197
52.849971
32.843480
22.915080
32.905802
17.968066
12.949717
0.570397
-1.869300
-11.575622
0.558912
-4.187817
-4.104560
-13.120767
-8.393443
-12.441638
-9.880260
-1.533043
0.446801
-8.701365
0.404145
-4.510350
-4.210529
-8.122379
-4.835546
-4.365300
-0.799062
-0.690592
-1.348760
-0.488115
-0.403147
-0.309140
0.609800
0.033360
-0.053235
-0.022230
0.167184
-0.401065
-0.548515
-0.124490
-0.152278
-1.677466
0.652201
3.570583
-2.323878
2.034838
5.967361
-0.312337
-1.766454
-3.467120
2.969763
-2.170468
3.253202
-0.444052
39.217545
77.639317
105.880894
104.940830
98.248226
102.957206
116.957298
105.265957
101.555350
80.456605
65.980637
41.451825
41.532081
26.722185
31.471581
26.541803
19.109805
9.178923
-5.411699
6.663418
4.200819
4.150054
-0.534641
-2.772064
-2.698339
8.060862
-0.472952
5.510899
1.445866
-4.049425
-2.117385
-1.981731
-3.349590
-3.071793
2.229438
3.166117
3.823048
2.397771
0.567691
-0.141163
2.304793
1.734300
0.874612
0.502034
-0.108661
-0.595061
-0.922746
-0.964641
-0.352528
-2.750754
-1.182247
-2.098747
-4.142972
-1.681787
-5.074861
-7.873021
-6.006749
-5.066232
-8.326118
-10.614234
-13.097283
-6.707656
-12.574521
-3.401040
30.669293
69.493628
99.618343
91.369273
95.773020
96.029980
103.538511
87.712371
91.273136
69.475928
50.217794
35.492926
67.913064
87.863751
80.078589
82.562813
77.446959
52.199971
32.313747
7.855180
14.969862
7.649666
-6.420079
-6.257133
-3.900581
-5.924723
0.481255
-3.530089
-3.371901
-6.867362
3.869074
-4.464725
-1.157014
-7.959389
0.293128
-0.887646
-2.841781
-2.457228
-2.092229
-0.471845
-0.899173
0.464302
0.557231
0.150898
0.001837
0.190369
-0.496829
0.251695
-0.104483
0.989921
-2.134914
-0.943682
-1.928552
-5.021077
-0.247313
-4.881909
2.237898
-1.657341
-0.333456
1.207032
-2.073150
-3.953264
-5.963837
1.466075
45.604941
80.715657
105.999995
106.904412
109.705402
117.120280
112.599910
107.564032
89.749931
87.651513
58.528938
41.451825
36.613406
36.542723
34.068416
26.516035
19.091216
4.319271
4.289658
1.844536
1.818815
-2.881178
-0.531863
1.721444
-4.909527
-0.491848
1.572632
-6.319656
-4.204350
-2.220601
2.999376
5.987038
2.610176
1.043522
0.962686
1.996764
-0.231196
0.665062
4.196146
-1.351589
1.324735
1.000175
1.072528
-0.123858
-0.033303
-0.378035
-0.684374
-0.990713
0.109923
-1.609908
0.158595
-2.945690
-2.418121
0.224768
-2.965620
-3.258923
-6.085342
-1.041312
-9.849244
-7.533698
-4.725439
-4.947046
-8.824868
2.391155
32.759274
73.925026
90.999287
98.329394
103.002422
95.835783
100.546753
105.065628
91.010101
62.033869
52.749971
50.170149
23.023786
23.023786
10.574578
20.471676
22.741152
10.415112
3.020865
-6.719900
-11.429664
-8.890306
-6.400526
-4.008815
-10.531458
-10.149721
-14.024814
-7.497314
-7.169029
-8.678910
-8.173669
-1.234750
-11.670484
-2.431099
-3.474012
-5.445370
-5.867672
1.067894
13.994598
16.866039
12.478077
10.388967
5.654306
2.970971
-0.123717
-1.492949
-1.910980
-1.803080
-1.020370
0.433576
-2.189061
-3.981802
-1.070489
-6.010597
-1.303460
-2.633729
-0.295664
1.041685
-3.253430
-3.541911
4.709434
3.155902
-4.092163
3.409728
35.674751
78.633534
102.425908
109.692130
100.814496
113.790177
112.942854
110.404665
89.749931
63.700592
61.228678
46.126479
36.578064
34.068416
31.532691
29.006539
11.729345
23.889758
4.281197
1.848210
1.826164
6.464708
-0.531863
3.942762
-0.506298
-2.606920
3.595867
3.477415
-6.064394
-9.315913
-3.766286
-1.961088
4.066937
1.038011
2.153290
0.861641
1.742938
0.641178
3.400141
2.784008
2.179285
2.267448
0.739363
0.365116
-0.030733
-0.417142
0.322109
-2.173212
-2.811593
-2.806892
-2.608533
-1.411203
-5.120630
-0.755674
-5.175909
-4.445153
-7.429668
-2.414447
-2.597612
-12.383884
-3.018059
-4.953564
-1.433612
-1.493271
36.838440
80.309731
100.162706
97.912744
96.170831
105.878395
108.434815
95.436851
96.545507
69.741865
50.217794
42.893312
32.874641
25.324969
27.932028
15.512887
10.474912
0.571490
3.006355
-9.138738
-9.050012
-13.609739
-13.365253
-1.731905
-10.486548
-10.127266
-3.642485
-3.505111
-9.026964
-5.005706
-4.712403
1.964578
1.825287
-3.780351
-5.939383
-2.018978
1.239106
-3.238485
-2.000979
0.140548
1.067149
1.524892
0.499405
0.448498
-0.005002
-0.159246
-0.297849
-0.083364
-0.107817
-0.133938
-2.876477
0.602597
-0.205076
-1.203194
0.828571
-2.617702
2.271742
1.045360
-0.340681
-0.371248
-2.105589
3.160132
6.978867
11.152915
55.886229
82.987860
64.043238
47.977876
42.443547
46.077067
59.094861
45.318030
58.358300
43.753658
43.796178
21.653684
16.730530
31.471581
26.567572
21.674666
26.387191
11.603836
9.133840
4.251584
1.818815
-2.884127
1.760025
-0.520747
-7.023559
-0.487402
3.587406
-2.409337
1.434843
-0.413486
2.957072
-1.949292
2.605946
2.373272
3.384699
0.854292
0.753247
3.083685
3.251812
3.271338
-0.551464
0.887573
0.924199
0.243449
-0.039772
-0.135588
-1.046962
-0.682706
-1.368748
-1.662051
-1.236364
-2.222586
-3.398191
-5.691099
-3.043834
-5.703604
-8.749571
1.691800
-2.610101
0.373519
-11.618283
-1.384801
-10.825312
4.347451
51.160116
84.889774
100.598196
96.513775
94.185116
108.654762
103.843935
97.774829
79.243646
62.390385
55.338904
45.296684
32.999284
27.984929
20.491062
17.968066
5.530252
-1.887378
-9.200846
-6.693829
-9.005650
-1.809641
-6.367936
0.522818
-10.475321
-14.327622
-11.776092
-5.442402
-5.220795
-6.778637
-9.752288
-2.818243
-1.129896
-1.032273
-2.168840
0.260862
-0.764714
-3.997014
1.587582
-1.053199
-1.756767
-0.269367
-0.374656
-0.154025
-0.069449
-0.035013
-1.610780
-0.448249
0.846086
-0.135050
2.578754
1.404503
2.470631
0.753247
-0.253427
-0.274546
-0.300666
-1.683882
-1.816587
-1.984680
3.024759
3.160132
-0.433493
16.995624
58.105233
85.562584
101.401044
98.886057
110.522357
108.899796
118.029208
101.055570
82.508019
73.161742
51.240698
48.726262
41.411698
46.440876
26.541803
33.804830
9.251056
18.849555
18.849555
9.034657
6.564063
1.789420
10.850785
3.946993
-7.023559
-31.786966
-46.924719
-58.531011
-48.778074
-41.031330
-35.314212
-14.449522
-13.389006
-9.605872
-2.676467
-3.527250
-1.191398
-2.622232
2.569738
-0.704812
1.622992
-0.073360
0.476905
0.171316
-0.048812
-0.495356
-1.109070
-0.695194
-1.420891
-2.297993
-1.257178
-4.631658
0.211643
-1.760881
-4.170104
-3.330620
1.604744
-2.456076
-7.140733
-1.238366
-6.485842
-5.005706
-12.765768
6.340470
49.418030
78.735135
103.441315
88.045807
101.662593
99.452773
108.541333
96.083567
81.780227
72.281106
55.181840
42.933893
28.143634
35.425895
22.980304
13.011323
10.445012
10.355313
7.878014
2.980238
-9.014522
-6.511329
2.838046
2.777106
-12.604629
-12.183569
-3.621671
-13.259824
-5.207760
-6.734274
-1.287178
-7.477560
-5.492115
-3.702137
-7.022191
-4.187849
-1.715090
-1.473645
-1.228038
0.716766
-0.356143
0.406264
0.457350
-0.283922
-0.044235
-0.194634
0.207602
-0.087254
-0.113931
2.818237
1.247977
-0.184512
-1.105877
-0.229529
-0.253982
2.123677
-4.192477
-3.098505
-3.328221
-3.595334
-0.400703
-7.636845
-4.204350
17.100536
60.481323
96.165968
101.177200
110.764040
106.437520
113.089930
103.904307
109.063929
87.480318
63.207267
63.762258
41.572208
41.572208
31.502136
29.147348
26.541803
18.961091
6.742902
4.306579
4.251584
-0.550203
1.782072
-2.810402
-9.419450
-9.135854
3.672015
-8.518019
3.430880
-5.956102
1.342984
2.940150
2.737089
2.546720
-0.304001
0.920431
-2.409354
2.609728
2.212308
1.176060
1.530069
2.850507
1.711586
0.775871
0.071917
-0.301667
-0.898205
-1.448356
-1.140623
-3.001749
-4.271193
-6.359279
-6.475473
-8.114275
-3.815201
2.497025
20.939403
34.470127
35.413971
35.068914
36.648281
35.209630
24.087296
17.501556
29.987753
68.163232
89.805853
102.996407
103.320009
103.428492
99.850584
108.967402
95.898791
81.701968
70.007801
52.499971
37.879267
30.505332
27.905577
12.999002
12.962038
0.575318
3.029570
-4.308540
-9.120993
-13.745565
-8.810453
-10.935651
-6.224544
-12.604629
-5.794366
-7.692510
-5.390259
-7.053686
-10.200513
-7.960345
0.364223
1.790464
-3.689101
-5.793425
1.360985
-2.639728
3.428515
0.844449
-0.433880
0.998810
0.073829
-0.345516
-0.248432
-0.070776
-0.039459
0.511882
0.689560
0.387647
0.472157
0.552993
-0.993815
-1.129469
2.742202
-2.484146
-1.492196
2.309816
-0.322897
-1.860822
-0.377361
-5.561606
-11.305292
-6.095335
11.304749
52.600779
89.657725
112.737452
97.410288
111.339312
111.799708
111.697839
103.986585
78.077161
68.578583
51.389798
41.170932
41.451825
36.436700
31.441026
16.665746
11.706525
11.603836
1.851885
4.226201
1.818815
1.776560
1.745328
-2.724880
3.798928
-4.631730
1.543237
3.397037
-0.427935
3.092446
-0.381807
-3.429724
-1.751709
