655.814041
696.264567
-13.267486
74.587524
88.656699
31.577228
21.524842
8.097533
0.552262
3.035064
2.756043
1.411619
2.078421
-0.441423
1.452048
2.150579
0.501540
0.094890
0.363022
-0.030193
-0.277445
0.891863
0.585178
0.263357
-0.838884
-3.758349
-0.306651
-1.185666
-2.321474
-0.442521
1.921649
-3.040565
-3.351983
-6.685186
33.244234
84.966112
110.771128
123.818295
131.205235
136.547724
152.880684
126.505487
137.487284
136.257684
138.533878
136.849502
125.029189
98.567359
89.115254
64.767026
67.266785
62.211283
49.817749
50.595392
47.723024
28.052800
35.066657
15.478531
20.006486
12.670808
5.772555
1.301211
-5.095919
3.209040
3.035374
-9.835407
1.049181
7.369440
-0.591601
0.814142
4.501784
8.535349
4.363056
5.574763
5.110450
5.802121
3.578699
3.270083
1.400512
-0.091115
-1.464950
-2.489973
-3.371246
-3.606658
-4.021423
-6.866289
-6.121752
-6.023118
-8.883689
-7.303482
-11.343210
-8.692045
-4.305265
-10.026508
-5.099689
-2.323636
32.395308
81.306921
133.811005
154.599922
145.202933
129.272499
93.287283
96.303500
95.973379
91.649742
90.120344
92.364004
128.560473
131.529239
123.173559
102.817372
94.301941
80.412809
70.754974
50.920480
60.847218
53.619821
40.391380
40.080078
25.416487
20.070316
20.050385
-1.401161
0.920436
0.890071
5.255843
7.195899
-5.379669
0.791385
-1.143427
2.564164
0.693648
3.911987
-2.448931
7.585031
4.396598
-1.890802
-1.712353
-1.469358
2.678294
1.588711
1.839311
-0.249190
0.968058
0.212573
0.256251
-0.095778
0.290701
-0.986654
-1.837388
-1.764746
-0.250039
-0.287780
0.489901
-1.284747
-3.457299
-7.202373
-5.408357
-5.854728
-1.998128
-0.617077
27.768133
71.937888
101.252663
111.028842
127.695942
132.347616
136.999289
125.392908
116.994207
124.563830
119.382709
113.133948
108.804351
90.237830
70.648771
60.825776
65.394613
53.255113
33.948232
33.627360
31.036061
30.917148
18.487278
18.218307
18.074856
-7.989488
-3.200308
1.339441
-5.180851
7.466166
1.196435
-6.513518
-4.393815
-0.694447
-3.918196
0.907591
-0.552916
5.719727
4.060099
3.635403
2.288165
2.565167
3.157793
2.576442
1.796903
1.136277
0.237830
-0.344530
-1.986948
-1.894913
-1.779151
-4.407662
-1.567014
-5.355887
-5.199266
-6.708383
-4.518826
-0.637927
2.790209
-3.269753
-3.504188
0.572189
-7.018371
-4.238340
-4.552976
0.727809
49.861435
83.300180
93.910936
118.031164
127.269207
120.428636
107.181748
114.517230
119.705565
116.792569
103.924017
72.339297
69.946346
55.753504
53.010505
40.196816
35.533988
30.598465
20.548655
20.508793
13.132866
8.204293
5.699998
-1.405433
7.776734
0.896714
-1.308605
0.851166
-3.288022
2.740202
-4.916968
-33.629676
-45.443037
-47.477898
-43.091564
-35.230640
-23.567253
-12.248655
-9.977066
-4.125885
-2.005037
-1.021337
-0.831497
0.164160
-0.163754
0.626382
-0.041765
-0.198175
-0.277426
-1.050826
-1.019184
-0.213241
-1.540100
-4.816681
-0.336845
0.560696
-4.609041
-0.459505
-3.034903
-1.882534
-0.577448
-0.626512
-4.037101
1.067588
2.959867
39.756994
89.758328
99.614249
117.612827
118.493715
112.810430
103.648245
116.498744
110.598497
89.633366
77.984915
63.479669
43.725456
28.737015
31.184701
16.366133
11.363481
8.825195
6.355331
-0.969962
1.442801
1.431474
-3.266362
-3.200308
-3.137557
-7.387870
-2.955909
-6.906576
1.161037
2.959867
1.046350
-2.308581
-0.614246
2.265205
3.373969
3.042707
1.683802
0.553617
2.743540
1.650178
0.789046
0.975384
0.891863
0.564375
-0.012339
-0.690955
-1.302184
-0.206472
-2.062943
-0.877059
-1.721247
0.302700
-3.896669
-2.455399
2.516882
-4.134421
-6.909548
-3.467172
3.382417
-9.913059
-4.244509
0.698393
-1.086469
-6.756874
28.051350
77.992717
99.533942
105.726245
113.543393
111.704115
116.835502
119.585979
109.445589
93.755263
72.269539
62.617871
38.001443
45.666370
30.745573
13.299429
23.083971
27.833471
13.107241
-1.456695
-1.438184
-3.785401
-3.728449
-3.652514
-10.271052
3.032490
-3.352567
6.889347
-5.095879
-4.892290
-6.440813
4.042956
-0.955467
0.593065
1.913159
-4.518820
-1.830054
3.501144
-0.528283
-0.448542
0.254306
-0.804920
0.548040
0.101533
-0.078317
0.000949
-0.344928
-0.300545
-0.787036
-1.024846
-0.759619
-2.181868
-0.302877
-4.637420
-2.276177
13.318156
28.613652
33.701446
34.729600
34.355000
20.006962
14.649780
8.237710
6.701712
34.050213
71.897622
97.521684
114.173196
105.566397
106.207380
109.285855
101.915167
91.195352
84.898736
55.827372
63.540068
33.723622
33.851971
23.895745
28.846489
18.881769
13.833510
1.472535
-0.976566
-5.798024
-10.484530
-12.676464
-7.845100
-3.160675
-7.395892
-0.842583
-6.898554
-8.574477
-0.742568
-11.309386
0.992545
-6.757851
5.121841
-1.813177
-0.472715
-3.633773
1.495035
-0.313256
-2.205933
0.315746
1.823367
-0.111338
0.518130
0.011327
-0.163262
-0.131003
-2.836412
-1.554679
-0.880856
-3.614225
-4.964360
-1.347861
3.202659
-2.683665
-4.066084
-1.966738
1.879944
3.376722
-0.904205
-5.859944
-2.775455
-4.738057
-8.644711
24.213978
61.599951
88.330385
110.616389
110.736617
116.714315
121.596089
112.580199
116.677729
85.842623
81.468320
54.903117
50.388041
37.964904
33.098021
30.539622
23.083971
15.671028
-3.895508
10.606740
-3.823369
-3.785401
-3.717059
-10.445693
-1.331388
3.015882
2.909596
2.823238
-3.120963
-8.579221
2.487771
-1.005305
6.911084
0.587371
3.228670
4.219120
0.455474
0.403284
1.212332
2.468548
2.040989
0.674256
0.504861
0.093941
0.146144
-0.010381
-0.550178
0.144422
-1.163128
-0.647327
-0.789343
-0.937964
-3.404877
-3.830487
-4.256096
-6.870188
-1.654648
-4.371758
-4.652513
-6.487952
-5.438627
-5.863771
-7.972395
-10.128431
10.926755
51.822603
91.757807
90.002278
112.577895
99.884339
99.804498
99.718991
96.326353
79.991402
68.178436
41.123469
38.793586
16.443993
8.969591
18.917632
6.435080
-3.444707
-10.795952
28.107538
52.184914
53.854485
57.691623
51.774955
43.746105
31.828675
26.457944
5.257258
10.887118
2.948541
1.054845
2.657840
-5.238088
-0.569900
-0.518948
-1.674464
0.644234
-5.057845
-0.317030
-0.262305
-0.746408
-0.561457
0.453041
-0.060387
-0.009435
-0.252943
0.285645
-0.504973
-1.135159
-1.363425
-0.380193
0.297007
0.335912
-0.563882
-2.671326
0.449780
-3.201890
-8.754186
-3.658421
-8.424334
-4.250679
-11.463442
-2.915936
-3.007059
12.436601
61.599951
90.928369
106.546737
100.073771
115.982564
112.313798
107.829758
109.768755
88.613143
72.199781
42.895375
47.780121
28.103961
35.465654
25.589220
23.061667
18.084691
5.830967
-1.445303
12.876615
3.291563
-3.690482
-1.366986
-3.519626
7.349175
-11.693082
-7.226695
4.652246
-4.805920
-1.057990
2.334984
-0.935531
2.032731
-0.807376
-1.959144
-1.784492
-2.566447
0.338759
3.792515
2.016788
1.138861
0.139489
0.758312
-0.056958
-0.039632
-0.191556
-1.363198
-0.145306
1.251436
-0.815765
-3.707388
-2.671184
-3.000069
1.562991
-5.860476
1.895221
-1.803269
6.316663
-0.591601
0.971307
-7.640212
1.083163
-2.632245
14.900997
62.449477
90.055217
93.070459
95.683668
105.004021
109.835583
114.326161
96.513213
75.589135
65.457372
58.576111
46.297716
46.297716
21.426825
18.863838
16.350561
13.820298
3.907478
3.881050
-5.781038
-3.325810
-5.616836
-7.780927
-5.384688
-5.197838
-0.841640
1.220505
-14.333638
-2.586007
-4.212627
-0.654818
-6.799374
-7.720540
3.380104
-2.853715
-3.633773
-3.176543
-5.073369
-0.908240
-0.746408
1.079670
2.695349
4.107153
0.845590
-2.578708
-5.631958
-7.646422
-7.899884
-5.659029
-8.648223
-5.662452
-3.015394
-8.906467
-5.753528
-5.217389
-0.739027
4.517605
-3.683099
2.122411
3.951847
-1.039479
0.722115
-1.129188
22.315465
57.816921
90.928369
106.781163
109.477065
114.682954
108.663650
120.183909
90.426202
100.785247
67.288291
50.146024
43.019231
40.430292
35.363152
25.564544
18.172481
8.284965
8.236562
5.774024
3.324778
-1.411129
-10.598504
-3.610749
-10.183732
-7.670889
0.828393
-5.213096
0.774305
2.580772
-1.049447
7.286914
-10.304570
-0.862910
-0.798833
0.483941
-1.746524
3.259129
1.149224
2.347541
3.075012
-0.717594
-0.199352
0.677641
0.250082
-0.144388
-0.385025
-2.398002
-0.150967
-0.693565
-3.223262
-1.687316
-4.344396
-1.261628
-0.397231
-5.936917
-8.921424
-8.380119
-4.732729
-6.612521
-2.268949
6.260027
-9.860888
-0.756721
16.942612
54.662868
88.137455
93.472491
104.668143
107.306836
110.385310
95.672343
101.780112
70.378862
53.458960
41.162634
41.201799
43.850030
28.819121
23.850445
8.918628
8.842182
6.355331
-5.831997
-3.365442
1.428642
-14.933221
-16.882616
-9.820164
-5.175189
1.257319
-4.863772
-6.569669
-4.433450
-7.660974
-2.285462
-0.611415
-4.820966
0.768833
-2.842391
1.698903
1.483709
-1.896814
-0.901635
-0.210410
-0.568063
0.169908
-0.211372
-0.011323
-0.159465
0.085401
-0.504973
0.587898
-1.388103
-1.032727
-1.203583
0.334014
1.302011
-0.622264
0.450729
-3.220398
-7.427764
-6.461704
-0.914172
0.657590
-7.978894
-6.509150
-4.923137
24.272821
65.960029
104.202474
108.703655
111.454133
116.348440
120.616988
111.195833
66.183073
27.833471
5.882216
-8.807000
-18.592320
-21.038422
-3.914492
-8.849711
-6.360594
-8.747205
-6.298901
-6.268054
3.318135
-8.439686
-5.984264
-10.423863
11.838798
-5.546241
0.825546
-7.158357
-1.151971
-2.934920
-1.053719
-0.986793
3.684215
-3.683099
3.131867
0.478247
-0.642199
-0.565306
0.319780
-1.074492
-1.443627
0.604505
-0.820523
0.621171
0.185544
-0.085870
-0.968253
0.172740
-0.159459
-3.276551
-2.093631
-3.898490
-2.783486
-0.365151
-4.422188
-2.683851
-9.061094
-4.468017
-7.542178
2.423769
-2.308581
-7.681735
-4.382491
-0.763326
20.982672
65.086836
97.580581
106.752294
102.529541
107.636672
103.176099
114.999989
89.547014
70.446339
58.409069
48.694132
51.518843
31.363069
13.952423
23.873095
8.944110
-0.984115
1.472535
-3.401772
-5.792362
-10.443007
-7.877186
-3.177189
-3.121043
-13.830971
-5.022312
-6.826360
1.156790
-6.296936
-9.465942
-7.287268
-2.143447
-1.981615
0.767417
-2.836729
-1.482908
-0.364207
0.470079
1.030668
-0.208523
1.435474
-0.386415
0.086370
-0.007548
0.037956
0.084452
-0.527754
-1.546137
-0.869465
-0.387313
0.297956
-0.511196
0.374817
0.415620
-4.108794
-1.978128
0.534233
1.979588
-0.918444
-2.653957
0.701240
-6.534777
0.757225
24.449351
74.707962
99.983813
115.807664
97.003990
99.578407
124.676960
106.297628
107.772521
86.682570
62.135732
47.734090
37.855284
35.431486
35.499821
25.564544
15.655843
10.721577
8.236562
15.367326
-3.808182
-8.473855
-1.369834
-3.595562
7.437914
-7.662346
-3.284225
2.770095
-4.941645
-2.919733
0.695546
5.534066
2.132375
-10.639640
-34.208509
-35.046555
-25.857748
-21.020700
-15.579505
-8.221658
-2.989708
0.164160
-0.455615
-0.246791
-0.102506
0.128362
0.509163
-1.656221
-2.204049
-0.736500
-3.414364
-0.291555
-0.333070
-2.208232
0.617332
-2.717824
-1.724005
-3.182119
-6.218053
-5.230067
-8.981816
-6.000138
-4.427788
-4.597652
27.017402
67.454288
91.160806
102.689124
103.175057
101.324484
101.111103
105.130581
92.703447
75.589135
55.934014
43.725456
46.209948
36.341182
21.426825
21.406534
6.441214
1.478199
3.926355
-5.815010
-3.365442
3.794218
-5.565877
3.639429
-14.268851
-7.291611
1.253071
-2.813893
-0.768043
-4.405139
-4.178654
2.616311
-2.123630
-4.764815
-3.051890
-5.148839
0.627243
-1.268233
-1.076677
-2.173847
2.333475
-1.331581
0.419063
-0.194859
0.018403
-0.458432
-0.132427
0.451718
0.176496
-0.888449
0.260948
0.304598
0.342554
-0.568154
3.565681
-1.830054
-0.750419
-2.160374
-9.443246
-2.471711
-2.661551
-4.571484
-6.603115
-1.137731
40.174903
78.539394
95.980334
112.201850
103.379096
110.820874
120.251113
108.368368
100.195859
74.150761
59.747221
50.242831
40.469205
23.128577
25.663249
23.150881
13.248179
8.244629
10.627619
-3.823369
5.677221
-3.732246
-3.660107
-5.823861
5.210288
-1.277278
2.853131
-3.174118
-6.816669
-6.509150
4.094205
0.643357
2.109125
0.557955
-0.766082
-5.359285
1.454798
3.065518
1.822177
2.178131
0.204014
1.323013
-0.982352
0.467895
0.039860
-0.404848
-0.509592
-1.123020
-3.125117
-1.313615
-1.540100
-1.794896
-5.405554
-5.979328
-2.497001
-5.013889
-5.470641
-8.546211
-6.301099
-9.995746
-9.032777
6.387436
28.892757
53.331556
95.009757
132.647724
139.001046
147.075569
142.230128
126.630239
111.154929
115.561513
97.260653
83.079108
63.358870
58.576111
46.341600
36.444522
26.409656
16.475137
13.859935
6.386004
-10.723287
-5.831997
-12.969488
-15.159711
-14.887923
-7.740819
-9.737118
-9.456839
-7.067007
-6.786252
-8.460289
-2.566191
-4.144681
-7.162699
-2.113722
-1.945285
-3.029241
0.693791
1.664925
0.538042
1.204334
1.601102
0.796597
0.230792
0.650256
-0.050951
0.000949
-0.320806
-0.598426
0.831368
1.081918
1.887713
1.605794
1.076152
0.343503
0.384306
-1.674385
0.464014
-0.750419
0.540875
-2.293262
-7.116606
-2.688129
0.704086
4.401697
10.339730
34.431898
83.205080
105.140179
105.078860
114.397103
113.696737
113.577041
113.592409
105.139145
76.366234
57.465007
45.360763
42.854090
37.855284
37.709125
23.017061
13.145678
15.488807
3.384564
8.123622
-3.774011
10.189152
-3.644920
0.896714
-3.489252
-1.267310
-1.223168
4.714884
0.751532
-1.076502
7.495708
-2.562834
-3.862010
0.550364
-3.275922
5.063257
2.454245
2.992913
3.330266
-0.990963
1.218581
0.538076
1.117048
0.403358
-0.013211
-0.519036
-1.248536
-0.826671
-1.540142
-1.364574
-0.911543
-3.342593
-1.205482
-3.232694
-5.733074
-2.780107
-5.532925
-4.588341
-3.459563
2.514377
-10.826208
-9.606084
-10.051990
-4.654273
37.301478
74.333406
98.118511
98.913046
101.543712
92.495722
99.522694
108.593898
89.806070
66.022201
66.147718
46.253832
31.363069
11.439455
13.912785
11.461162
8.910134
-0.980341
-13.262512
-13.071409
-0.961470
34.549958
52.414810
57.802134
43.329916
37.621333
28.140453
13.111593
14.470644
10.173642
-2.401056
-0.645383
3.907670
2.189698
-4.259456
-3.914528
-3.497406
-1.231904
-0.293442
1.607236
-0.195313
-0.894617
-0.099072
-0.165135
-0.001424
-0.201230
-0.375882
0.135693
-1.190684
-0.338899
-0.402976
1.079473
-2.257980
-3.416877
0.422262
-1.856631
-0.758962
0.536130
-6.614514
0.625327
-2.691925
2.481128
-4.775073
8.393522
54.285723
77.381401
109.152886
107.601655
112.410820
106.571847
111.343054
99.311778
88.440408
71.990506
57.576051
50.291234
40.430292
30.480779
28.022814
18.137365
18.049575
13.132866
0.963137
8.083286
5.637361
3.235099
5.443755
3.125491
0.866349
0.838831
4.874324
0.783794
2.617308
-6.432271
0.673721
2.215411
5.001634
1.893230
-0.750419
-0.673526
1.401655
-1.385829
-0.438575
0.241021
-2.710669
1.628594
0.332146
0.149466
-0.033973
-0.305755
-0.098128
-1.203236
-2.034622
-1.965286
-2.246041
-1.879828
-3.830487
-0.386852
-7.943734
-3.962658
-0.507626
0.814142
-0.580279
-11.732283
-4.071073
-2.503440
-2.612429
3.107106
39.584214
74.585384
105.376325
108.013600
99.678604
99.402466
99.424545
103.623804
87.856206
63.238072
60.941856
41.358460
38.904005
23.941045
8.969591
11.439455
16.334989
6.373735
1.465456
-15.506995
3.824420
-10.339200
-5.531904
1.359263
-5.277108
-9.384174
-4.948704
-0.792576
-4.563679
-7.910111
-0.679351
-2.249133
-0.593488
-0.543480
2.004706
0.679632
2.631696
-2.072341
1.889423
-2.636704
-1.628380
-0.498706
0.613449
0.062300
0.020879
0.443693
0.855118
0.854146
1.133166
1.944184
-6.514705
-16.759203
-27.517285
-30.741381
-32.527547
-29.885301
-26.150176
-18.361340
-13.872221
-5.629305
-11.150234
-8.208110
-4.787411
2.693701
50.684918
79.632750
109.762679
109.540757
110.531983
116.476744
109.654504
113.929811
97.583838
71.781231
67.028240
52.451965
32.939049
35.226483
35.431486
27.914618
15.549548
13.068803
3.351350
-3.808182
-8.448228
5.506392
5.438060
3.122169
0.863502
-3.363957
4.845853
4.675024
4.470029
7.777580
2.344948
5.332387
2.036053
3.251448
4.178784
3.775427
2.351748
0.339707
0.286569
0.830364
-0.283365
-0.212168
1.178755
0.037956
-0.062283
-0.815371
-0.628497
-0.518523
-1.143751
-0.812462
-0.954478
-1.868504
-1.231904
-2.338461
-6.960784
-1.654648
-6.930650
-7.402036
-3.527509
2.559681
-11.067797
-4.314545
-6.385173
1.172365
45.856294
75.005346
90.002278
101.561266
97.090781
97.657870
107.436405
96.606643
85.306903
63.419269
63.600467
51.130021
31.481981
29.010701
13.978848
21.386244
3.945231
1.476783
-0.975623
-8.190027
-8.125855
-15.038916
-5.543228
-12.166857
-7.427978
-2.982330
-2.866736
-2.764352
-2.658666
-2.506743
-12.605221
-2.235922
2.355813
-4.652513
1.993380
1.804613
0.606005
1.359123
-0.284006
0.355391
-0.663841
0.215217
-0.955027
-0.037742
-0.064545
-0.212620
-0.660120
-0.592300
-1.233869
-0.922620
0.270437
-2.827466
-3.169153
-0.590937
0.432700
-1.905989
1.786944
-2.202139
-2.342620
-0.956890
-6.150378
-4.627009
4.430168
12.284750
55.000864
96.002738
95.130583
112.933601
104.700234
105.352151
116.978706
104.418308
102.616164
69.339874
59.805115
27.968716
-18.736586
-33.366652
-38.199671
-47.808153
-23.302598
-20.813958
-25.427905
-15.754403
-15.441194
-10.609419
-5.854708
-10.183732
-5.595596
-5.398177
0.808466
-1.161938
4.447251
7.704502
0.667079
-2.490695
7.790032
-0.800257
2.938261
5.970649
1.358476
-0.495533
0.277080
3.644425
0.634398
-0.193656
0.653439
0.384377
-0.160431
-0.379363
-0.386415
-0.928590
-0.700171
-3.223262
-3.783829
0.484238
-5.677342
-5.376350
1.736657
-1.681070
-3.108511
2.201024
-2.074090
-2.242527
1.033606
-0.725584
12.410855
16.902031
52.184999
86.306307
97.650326
106.577139
100.295809
104.910965
111.924548
94.713404
82.762013
60.941856
53.713769
48.786618
38.867199
18.953495
23.963695
23.918395
13.873148
1.475367
-0.973736
-5.803686
-5.713092
-7.965423
-7.837078
-7.652582
-9.633311
-5.073271
-11.058463
-4.716557
-10.153911
-2.500137
-9.096478
-2.222711
2.340711
-8.621708
-2.961295
2.895479
2.564217
2.177744
-0.280232
2.680783
-0.185878
1.562886
0.539835
0.462438
-0.049358
-0.687647
0.372003
-0.987095
-1.768234
-2.144090
-0.411520
-0.477021
0.357737
-3.587721
-2.844068
-0.711972
1.810194
-2.190749
-0.887117
-5.791606
-6.150378
2.514343
0.744889
14.257058
60.878640
97.213782
113.141556
102.168052
101.905046
110.330844
105.244133
94.607664
88.440408
64.519194
57.576051
50.194428
42.854090
28.049863
27.860520
27.860520
22.905544
8.228495
5.768330
3.341385
5.637361
-17.546389
9.928159
-5.731321
-5.577088
0.829342
-5.200758
2.683737
-4.805920
0.699342
5.630872
-4.010074
6.305582
8.442918
2.898401
4.791824
4.207201
2.767033
2.975316
1.326773
-8.032285
-7.957265
-4.544304
-0.922525
1.570382
2.937391
1.899780
4.226545
2.853905
0.985364
0.429017
0.487069
0.543705
-0.404780
-1.552265
-5.325311
2.095314
-1.938680
-5.117764
-3.895547
-11.158393
-15.339284
-8.325340
9.040860
52.547395
82.054594
104.667959
104.558197
106.976999
110.495256
105.644919
89.978774
82.999835
63.358870
51.470240
38.830393
38.793586
16.490709
31.452253
18.899701
13.820298
3.922579
-5.837659
-0.961470
-10.484530
-7.933337
-5.520579
-16.638194
-13.966865
-0.845414
-6.906576
-0.783140
4.883054
-4.246600
-5.687296
-5.350390
-3.493536
-3.216091
-0.486868
-4.878940
1.544114
-1.155942
-1.636356
-0.789343
-1.070143
-1.098956
0.109024
0.263312
-0.154234
0.239145
-1.287975
0.541397
-2.313988
0.242919
-0.424335
-1.298503
2.158141
-1.602246
0.439342
1.683978
-2.073048
0.554160
0.597809
2.258590
0.689853
2.520985
4.487112
22.261367
63.998629
99.196539
106.429524
106.571784
109.787311
107.672796
122.568325
101.811331
78.798403
69.474646
47.595997
50.194428
23.039364
25.490515
20.488863
18.119807
13.120053
10.648499
3.371278
-1.423944
-1.405433
-1.381226
3.132133
-7.944239
-9.812621
2.883024
0.801823
8.403962
8.059452
-1.045175
2.298448
0.616787
3.410888
1.823480
1.667371
4.729186
0.374817
-0.479869
0.269489
0.767256
1.826948
0.418504
0.409990
0.069751
-0.181188
-0.871981
-1.359875
-1.403776
-2.853797
-0.252869
-2.486688
0.501228
-2.213894
-7.559641
-2.706499
-6.637626
-4.492082
-4.780858
-3.629427
-8.892635
-9.478683
-9.860888
4.962802
56.748440
105.056784
155.872155
157.441766
159.740142
154.617906
136.441808
132.298328
119.136019
85.796703
71.323544
53.917617
46.429369
28.955964
18.935564
26.384647
11.428602
6.422811
-3.441404
-5.848983
-3.381956
-8.109812
-5.616836
-12.383440
-14.344348
-7.387870
-9.238844
-8.937803
-2.724720
-8.200771
8.161736
-3.997466
-6.872039
-7.796981
-3.153808
-0.480263
-0.435917
-0.379304
1.298717
-1.636356
-0.792646
-0.176442
-1.074891
-0.441646
-0.147215
-0.098717
-0.284759
0.694705
1.339147
-1.326409
0.246715
-1.161818
-0.488413
-2.375198
-0.605176
-1.788289
-4.399229
-2.114813
-2.228717
-0.904205
0.657590
-6.252885
2.527628
-6.791043
24.155135
67.995932
109.287283
101.670829
98.080369
100.714106
112.773159
122.080491
100.097628
76.440738
69.474646
42.647663
52.553518
40.430292
35.431486
27.968716
20.488863
8.220427
5.796801
3.351350
-6.163175
-3.732246
-1.374106
9.834202
-5.694305
2.976025
2.879703
2.773416
4.566832
0.725911
9.301913
0.649999
5.146843
-0.835855
4.340128
3.969039
2.528271
2.186613
-1.241551
-0.385889
2.286295
0.548040
0.110073
0.199287
0.114837
-0.115594
-0.486943
-1.098956
-2.331450
-3.382246
-1.540100
-1.766585
-4.548239
-6.948585
-1.439973
-4.993128
-2.955633
-3.199105
0.849540
-6.778612
-5.647188
-4.212627
1.110065
-12.260643
21.132727
61.316691
93.403687
100.485405
107.475576
103.122112
101.211611
112.804112
104.729393
73.258780
71.256067
38.977617
41.397625
26.434665
16.459565
21.406534
16.397277
8.893146
-3.451312
3.915028
-5.769713
-8.093769
-3.272967
-5.480945
1.333777
-7.371827
-9.197321
-8.896280
-6.569669
10.398255
32.913068
45.712762
39.742742
32.259370
27.071694
23.537809
17.004399
10.892697
4.465832
3.028091
1.392529
0.668235
1.899780
0.429414
0.025486
-0.044142
-0.112492
0.425146
-1.073466
-2.401309
-1.628707
0.288467
-3.820264
-3.322913
-1.640214
-2.924269
-5.675821
-0.791713
1.959659
-2.433743
-2.627380
-1.042327
-2.923530
-1.129188
20.407218
68.392179
103.733622
104.849180
118.468452
115.280884
103.979940
106.192279
97.296263
80.834325
59.573537
52.553518
37.745664
32.811871
20.548655
23.083971
15.579918
5.813884
-3.872727
8.139756
0.944159
3.251706
-1.375530
-3.576578
0.874889
0.848320
-7.363370
0.787590
-4.929306
-4.694871
-14.773829
-9.035563
0.601605
-0.833007
6.829090
-0.702004
0.414671
2.146753
1.805094
0.252408
0.710792
0.541397
1.948933
0.192644
-0.005696
-0.155226
-0.955027
-1.147085
-2.823572
-2.930238
-0.904937
-0.300990
-0.341562
-3.224673
1.672476
1.831040
0.747595
0.804231
-1.998128
-5.262153
-5.687296
-2.483624
-2.579402
-0.770874
19.252496
63.821199
95.966700
89.563149
105.547707
98.698910
106.173685
100.896774
97.167224
83.158383
51.275829
51.373035
41.515121
36.410075
18.953495
21.406534
16.412849
8.842182
6.373735
-8.238157
-5.786700
-12.816606
-7.877186
3.654530
-3.114438
-9.477600
-7.115136
-8.844376
10.794630
1.107233
-4.189978
0.984050
0.918919
-3.380293
0.785824
-4.058917
-0.424594
-1.288050
-0.308538
-2.197911
-1.256993
-0.577971
-0.113225
-0.214675
0.037753
-0.144278
-0.322727
-0.493583
-0.257734
-0.835294
0.896793
-2.707875
2.015784
0.374817
-3.707311
-24.498163
-32.946202
-39.330803
-33.318264
-46.830954
-32.507684
-27.206161
-15.671686
-1.133460
24.537615
68.471428
91.443252
98.242497
107.260825
103.628599
113.117680
120.542667
102.515560
76.366234
66.963227
42.523807
37.782204
32.875460
23.039364
20.548655
18.067133
17.909112
8.188159
5.705693
-6.132329
-1.392617
-3.641123
-5.805353
-3.485455
-3.371551
-13.436658
-1.181874
6.453721
-6.492066
-1.020968
-5.706184
2.085875
-0.824464
-0.753266
2.767432
2.437162
1.242225
4.722568
-2.186801
-0.290485
0.518147
0.563736
0.653440
-0.031142
-0.283107
-0.323664
-0.492101
-1.081467
-1.885070
-2.906603
-3.332212
-0.339675
-3.248738
-0.419876
-6.280901
-1.757032
-5.937774
-4.877117
-6.923942
-9.160178
-7.858207
-11.837862
6.965024
29.348518
67.915777
102.983389
94.477571
103.712987
113.173485
92.072357
103.322280
92.792158
70.918680
58.854515
46.429369
38.940811
31.452253
21.386244
28.901226
13.939210
18.720387
-8.310351
8.740255
-10.557195
-3.312599
-7.893229
-12.306999
-9.789022
1.282805
1.248823
-0.800124
-6.529562
-4.410801
-2.440689
4.245067
-3.669062
-0.566125
-1.806572
4.196002
0.628659
-0.363264
-2.639098
-1.545762
-0.729895
-0.561457
0.711601
-0.497338
0.050964
-0.367314
-0.349305
-1.144654
0.175547
-2.499544
-4.212658
-1.937174
-0.509772
-3.391250
2.494105
-0.693461
-8.268712
-3.479510
0.573138
2.168911
-9.381040
-2.805829
0.731605
2.663808
42.449025
78.812734
104.319687
109.540757
111.812890
94.989604
115.572148
111.636212
90.603682
81.072073
64.456554
54.956266
40.235729
37.964904
42.482522
32.716488
25.342458
17.909112
3.371278
-39.624064
-62.610407
-66.367794
-60.275140
-52.357271
-55.336401
-34.976311
-31.536937
-22.679849
-2.984278
-11.745330
-7.771508
3.820878
-0.888541
-2.186952
-3.232737
-1.811070
0.405182
-2.233303
0.287518
0.850293
-0.759358
0.142336
1.012651
0.607404
-0.072665
-0.049064
0.148669
-1.203236
-1.588272
-3.070380
-1.602384
1.249638
-3.861629
-1.360709
-1.499422
-0.471771
-3.068876
-0.543480
-3.487874
0.950068
-4.082398
-11.475478
-4.478747
3.114656
49.624082
78.864463
96.387607
99.439179
95.106006
94.448412
107.120725
101.387517
85.388537
68.373789
53.815693
38.977617
31.541437
31.511709
18.953495
18.863838
13.886360
13.793873
6.373735
-8.238157
1.437138
-10.391104
-10.162728
-3.180492
-9.747499
-7.315676
-7.034921
-6.818338
-6.529562
-9.809927
-2.407662
-2.265646
-3.629427
-7.491217
0.756090
-2.791431
-0.414215
-4.803042
1.944633
2.225410
-1.206034
-0.538339
0.883369
0.184992
0.008494
0.273327
-1.036929
-0.894555
0.182189
-2.532289
0.262846
-1.992698
0.345401
-0.573849
-6.906254
-0.689189
-4.535904
-0.807376
0.575984
-4.065598
2.348270
-1.057990
-4.787411
8.414402
40.804149
73.159417
100.546152
103.920184
104.039665
113.345098
118.031361
97.200405
95.262065
71.571957
54.743669
40.118991
42.730234
27.941667
18.154923
20.668240
8.284965
17.873996
5.791107
-6.187853
-6.095313
-1.392617
-3.629733
-1.334236
-5.614104
-11.759520
-1.214624
-16.875630
4.475723
0.710729
-1.006728
-0.944075
6.472617
4.566008
1.727157
0.447882
2.391608
1.182438
2.412078
1.412187
1.099001
1.145536
-2.630930
-1.793798
0.911651
4.267595
5.605801
5.815357
3.238968
2.691636
-0.967689
-1.902477
-2.111976
-3.353018
-3.665859
-2.859377
-4.347693
-7.414776
-9.452170
-10.267533
-9.236619
-11.550975
-6.369130
3.144859
41.749704
75.257324
92.366902
101.668852
97.492813
107.155742
114.775380
92.171178
87.856206
63.660866
56.520549
38.940811
34.012407
29.065438
31.392797
26.409656
8.910134
8.867664
1.473951
-13.084149
-8.141898
-10.380723
-5.560214
-7.732798
-7.484129
-5.101582
-2.896460
3.167511
-0.760495
-4.371167
-2.391148
-0.640665
-8.039044
-0.550085
-3.012255
4.136545
-1.423460
-1.218693
-3.280309
-1.460830
1.741256
0.222296
0.140174
0.568138
-0.041765
0.049343
-0.623104
0.498218
0.184087
-2.641440
-1.727417
0.309343
-3.177696
1.351833
1.488012
-7.767578
3.057841
-6.232488
-6.669089
-0.949771
-6.082041
-1.065110
-4.787411
4.646552
48.515669
87.927968
98.645016
103.920184
104.590139
108.868764
121.226781
113.817344
88.267673
66.898214
57.242920
45.142473
32.843666
42.565093
27.887569
18.102249
10.732016
8.228495
0.962188
-6.175514
0.940363
0.919487
3.158705
0.885327
-3.443690
-1.251647
-7.269406
-1.163362
2.597379
2.484449
-4.343219
5.292051
2.042696
3.205893
5.355568
1.544477
2.334665
-1.321283
0.973187
1.372327
0.617791
1.742507
0.272359
0.165135
-0.066054
-0.224583
-0.656807
0.607830
-1.708595
-3.248742
-3.114217
-2.743378
-3.064241
-6.417208
-6.960784
-2.876363
-1.816480
-0.551972
-2.070787
-3.855912
-11.082896
-7.982776
-6.417260
-2.754444
46.069579
81.508170
101.699614
102.421954
88.975958
88.534009
107.225951
109.540937
142.829023
127.951000
133.921925
109.245281
93.856695
76.599878
46.517137
48.971591
28.737015
21.142757
8.808207
1.451297
-0.956752
-5.656471
-3.220124
-5.412999
-5.299756
-13.559184
-4.926056
-12.653225
-6.433303
1.078915
-7.453359
-3.810615
-3.538833
-1.889139
-3.000930
-2.746134
-4.411807
-2.903810
1.846481
0.355391
-0.188708
0.926308
0.362433
0.339757
0.010438
-0.086861
-0.150938
0.876923
-1.215361
0.234379
-1.764433
0.309343
-2.301166
-6.452101
-0.646471
-5.413860
-0.766082
1.916480
-3.787978
-2.562834
-4.448098
-4.645517
4.464334
23.919762
57.143065
82.080563
97.057555
99.966049
113.726266
111.509916
109.654504
109.337866
81.468320
59.631432
69.339874
47.688059
37.818744
35.465654
22.972454
15.655843
10.732016
12.979115
-3.834760
0.948903
5.637361
0.920436
-1.354171
5.272925
-7.705057
-1.250223
-1.203233
0.770510
-1.107829
-2.809626
-2.665348
0.618685
2.006160
1.840087
1.687300
-0.653590
-0.571002
4.394705
0.270437
0.225839
0.174598
1.388481
0.845616
0.022774
-0.176475
-0.068879
0.178403
-0.962563
0.300171
-0.243434
0.431849
0.487069
-4.006959
-6.447407
-6.013358
-2.899012
-3.125497
-0.554803
-8.077264
-3.884223
-4.167330
-8.034680
-6.465389
11.006031
54.537350
81.963523
100.162646
96.085700
98.095861
115.008111
97.896832
102.172706
80.606721
61.174015
43.933079
39.014423
31.481981
19.007289
24.008995
11.482868
6.416676
11.298361
-8.310351
-8.254200
-12.969488
-5.633822
-5.531904
-9.944733
-7.419956
-13.589382
-6.954705
-4.705232
-4.524044
-6.104418
-12.535386
-3.787967
-2.057577
19.703465
27.727061
28.810468
24.318702
18.769088
13.734242
7.925533
2.127261
3.261599
0.755960
-0.115594
-0.128133
-0.231604
-0.678628
-0.592300
0.680899
-0.941604
-1.813787
-1.268128
1.228939
0.397591
-2.837899
2.887012
-0.770354
-2.194546
6.545695
-2.566631
4.099899
-8.284515
-2.969091
12.391046
49.384088
90.516462
93.708738
93.561796
109.902152
111.854437
115.299645
106.719026
91.047383
67.028240
50.049217
37.782204
40.157903
20.568586
20.668240
20.568586
8.268830
10.627619
-1.445303
3.328099
10.335308
5.495003
3.162027
-10.085497
-1.277278
2.886346
0.793283
-3.056417
