738.308746
744.204882
220.369725
145.267953
86.642119
50.285555
13.253593
6.421834
4.540515
-0.715079
-2.851455
-2.473698
-1.289658
-0.403874
1.357901
1.045414
0.749971
-0.110651
0.290957
0.166542
-0.259316
0.172229
0.233840
-0.727431
-0.899186
-1.020424
-1.984396
0.537692
-2.444546
-1.572733
-0.501636
-3.163530
9.297043
42.026551
100.429004
126.672851
129.072575
137.921123
136.534244
138.823717
138.693340
136.527301
131.712504
133.248917
138.835873
130.268103
105.056702
97.680612
75.473304
66.047289
53.472162
56.110518
31.299063
33.558967
21.127559
33.040681
21.107086
16.128485
15.861509
-0.977699
-5.608076
-0.939338
1.312025
-0.881306
-0.852782
3.209151
3.072913
1.069783
-0.724913
-0.678684
5.550476
-0.586226
2.092760
5.479181
-2.611350
-2.329508
1.290472
2.445973
1.941384
1.990441
0.777195
0.283828
0.196704
-0.228092
0.072869
-1.339555
-1.825684
-2.279405
-2.213339
-1.846134
-1.270967
-4.137498
-7.629462
-7.275403
-10.394266
-4.722353
-7.789287
-8.526112
-5.905053
33.646206
73.945345
89.991686
134.620007
169.814440
184.234044
186.254134
173.184237
157.238494
147.563462
138.581140
120.783690
99.830974
75.199800
68.685594
51.049988
45.527945
35.739045
23.163224
20.662926
5.914541
-6.324381
8.277399
-8.659056
-8.422515
-5.989274
-8.109945
-10.187102
-3.405444
-5.404360
-13.232236
-6.944140
-10.276070
-11.525852
-2.609220
-3.954261
-0.829879
-3.314512
-1.865331
0.437212
0.376974
0.319651
-1.027988
0.728523
0.994279
0.379231
0.790272
-0.029905
0.252897
-0.699671
-0.131802
0.692541
0.316454
0.379465
-2.538342
-1.182075
3.343970
-0.431801
1.816500
-0.514423
-0.555734
-3.439620
-8.361782
2.664201
-0.724913
-0.763274
12.579276
70.672929
96.294017
113.956415
110.471172
120.344107
125.843412
124.492399
114.810999
109.805309
95.489319
68.794636
71.015520
43.647857
28.867658
28.895282
31.179028
28.646661
13.666657
16.128485
11.177091
-0.991469
6.125038
-5.579316
-5.475783
1.300823
7.714222
-5.027137
1.184603
5.008591
-0.763274
-2.488757
-2.354048
-2.185661
-0.589177
0.775733
0.704321
6.114031
-0.389506
0.474681
-1.622028
3.076996
0.253443
1.077596
0.667083
0.090825
-0.342097
-0.799412
-1.350358
-2.157843
-0.300140
-0.356848
-3.316480
-2.914511
-2.321377
-1.596185
-3.962046
-5.563476
-5.984788
-6.406099
-3.911611
-4.240625
0.721886
-8.329009
-4.892561
28.272198
66.253206
85.555811
92.186909
90.219031
106.346184
99.777597
104.379363
100.838534
74.913325
57.725712
50.665430
35.772985
30.604326
20.979903
3.489592
13.307162
1.012389
-1.423242
-1.424626
-6.202524
-8.464755
-8.278902
-10.381554
-12.407598
-9.830608
-11.631301
-11.183943
-10.736585
-6.580882
21.805947
40.472539
40.429430
27.611832
16.106001
12.260386
5.748592
4.135744
4.257272
4.198088
-0.313971
2.281592
-0.444838
0.219555
-0.023513
-0.124606
-0.082622
-1.399140
-2.335621
-0.747637
0.378065
-1.800336
1.324532
1.494828
-3.555306
1.797579
1.960307
-4.572271
-3.433868
-3.681198
-2.340577
1.029176
-4.440446
4.909900
29.038515
60.873626
96.400604
97.581097
106.302279
116.621860
109.399778
121.807734
109.273822
97.680612
68.136943
56.056669
46.351307
31.449106
26.250341
21.352755
8.894446
28.453289
18.558904
3.867632
6.211393
6.112702
-7.907913
-0.935404
-0.917699
-5.205445
-2.943402
3.194013
-0.799667
-2.620099
2.781516
0.974567
-2.172190
2.247919
-3.157778
0.700120
2.775697
2.448782
0.470481
2.394659
0.859053
0.247842
0.465478
0.765554
-0.103534
-0.108406
-0.701172
-1.089774
-1.453032
-0.301523
-2.873562
1.021263
-0.485479
-1.457874
1.433760
-2.894105
-6.841942
-7.368245
-5.026476
-7.021863
-5.913501
-9.749767
-12.053280
-2.997987
24.524383
68.612086
83.345847
96.638839
90.599702
99.881134
107.369971
97.356612
91.098529
79.305393
60.421362
45.658025
35.772985
20.880848
28.273011
30.692017
15.825887
8.349726
-3.872711
-13.486519
-3.801687
-15.528099
-12.933901
-8.143736
-14.519781
0.885112
-7.459460
-5.191110
-3.057797
-8.437038
0.722858
-9.105045
-0.896269
-0.825730
-0.753807
0.484820
-4.828881
-0.538038
-2.022827
-1.027988
0.217635
-0.635483
-1.513122
0.522360
0.011659
0.054609
0.321672
1.146015
0.684972
0.319255
1.025566
0.438275
-0.348195
4.319913
-1.471701
-17.673942
-26.647258
-38.067885
-30.475887
-32.926209
-30.551807
-20.106648
-6.280770
-16.024822
16.992126
58.884270
88.239388
92.696448
100.344833
109.478868
105.021922
119.636491
89.842050
80.641533
65.603593
48.844804
36.306838
33.818109
31.239045
23.816553
13.786540
16.254121
6.322421
-3.441827
3.810866
-0.973764
-3.273440
-0.937371
7.945135
-3.037698
-7.118749
-8.868232
-6.573656
2.932891
6.277426
-0.684586
5.490610
2.259272
-0.538029
3.108781
3.908425
-1.320153
0.469080
-0.953069
1.394017
0.677403
1.043387
0.573008
0.060550
-0.042877
-0.667381
-1.684170
0.977234
-3.397256
-0.979392
-1.158823
-2.922959
-5.956833
-1.611138
-2.875826
-6.815626
-6.017196
0.576149
-6.989454
-0.966809
0.721886
-1.074693
-16.359847
16.641283
54.237635
76.658730
88.030172
102.022861
106.455481
104.587488
106.679238
89.006445
79.763364
60.191404
43.096193
38.182571
35.739045
20.900659
23.163224
13.345401
-1.438457
3.439693
-1.417710
0.988100
-6.086760
-5.983181
-10.392357
-10.208708
-7.687552
-7.442564
-5.197203
-8.836744
-12.115330
-6.268311
-4.246718
-11.578200
-6.438508
0.530484
-3.034241
3.632412
0.380860
-0.459200
0.924792
0.218606
-0.230983
0.113675
0.192942
-0.036557
-0.141445
-0.299729
-0.135737
1.116447
1.941384
0.380865
1.180725
-0.350162
0.558696
-2.530824
0.674916
1.990582
-7.303655
-2.024010
-3.732965
0.982968
-4.256386
-6.305177
3.053991
23.066502
63.149644
90.259739
95.288819
97.886660
100.692329
112.655457
114.697550
106.615407
85.425778
65.793748
48.611320
44.067145
26.452267
31.299063
23.862266
28.757159
8.851684
6.334758
-3.428356
-48.956236
-52.791332
-65.907567
-59.945988
-38.481752
-33.033001
-15.445294
-14.950479
-18.153909
-6.313313
-0.720979
2.622572
-2.158719
-3.410860
-5.722798
-1.677133
0.625907
-0.380653
3.598105
-0.932863
0.316454
-0.569147
1.545158
0.388598
0.146524
-0.130835
-0.317742
-1.098222
-1.520615
-2.419842
-2.884365
-3.370494
-4.670941
-0.544954
-3.674819
-2.918476
1.733153
-8.764611
-3.655711
-5.508004
-7.594415
-4.569639
-2.904533
-8.674701
6.758537
52.064381
75.220761
83.945054
97.325322
107.329859
109.187911
107.411350
93.895438
77.302382
55.207547
45.658025
30.867400
35.772985
25.869414
18.398671
15.856089
5.920223
1.007531
-6.275638
-6.190338
-8.456307
-3.678328
-5.879603
-3.517588
-11.986555
-13.728639
-7.172232
-6.901901
-10.276070
-1.020751
-2.598006
-3.954261
-5.085611
-3.338883
-4.223930
-1.682162
-1.454136
-0.459200
-1.681627
-0.841081
-1.078435
0.399191
0.685827
-0.109822
-0.121239
0.929601
-0.437806
-0.596089
0.309453
-1.541502
-0.307867
-1.185443
-1.330256
-1.454862
-3.872599
-4.246842
-1.872461
2.263057
-3.721462
-2.360783
4.545975
-0.761307
1.118792
23.121751
58.816117
86.117770
103.352589
104.735016
119.173291
119.998708
102.544811
106.823234
83.035887
65.857134
41.284605
43.689786
23.907979
33.688538
31.119010
11.341138
11.275519
3.878985
6.254571
-3.377840
-0.970814
-0.958027
-0.936388
5.699432
1.261616
-0.854749
7.166871
-2.731234
2.910185
2.789085
0.964765
5.499162
2.255488
7.259579
1.892188
3.874215
6.187559
1.263982
3.040344
3.612027
0.242241
-0.701728
-2.853258
-0.510484
1.865713
3.685596
5.680153
3.526367
2.829684
4.047078
-1.158823
1.994240
-1.450398
3.463650
-2.906291
-4.384439
-6.071210
-7.855075
-2.426052
-9.249779
-8.048135
-10.223440
-12.549682
8.728706
56.420309
70.893910
90.208553
99.253526
108.860910
109.734397
106.888412
96.525257
67.394511
47.909272
40.814639
28.299887
25.869414
13.421878
13.345401
5.959994
5.914541
-1.434307
3.419734
-8.608368
-15.559124
-3.674590
-12.670749
-1.300144
-11.986555
-7.476355
-9.214844
-1.134168
-4.758518
-6.268311
-0.966809
-7.000257
1.999280
0.529513
-1.872807
-1.693377
-3.303113
-0.459200
-0.378978
0.735176
0.568847
0.405844
0.063153
-0.052334
-0.212819
-0.081639
0.191833
-1.472564
0.312253
-0.902553
-3.271673
-0.347211
-1.313417
-3.547171
-2.749395
-4.214299
-1.892668
3.682425
-5.255670
-4.020559
-2.495493
-0.758356
3.046423
22.900754
56.758863
75.763416
99.226326
100.238535
114.553122
112.088209
109.985807
96.642461
80.408465
70.606602
55.895123
48.611320
33.785716
33.623752
31.179028
18.739790
13.719938
13.640016
3.837357
8.569457
-0.968846
1.359633
-14.477570
7.945135
-0.885240
-4.986873
1.180402
1.128593
-0.759339
7.961763
-0.676717
-3.663943
2.240350
-0.531144
4.224862
-1.485172
4.188675
-0.320654
-0.267539
1.344671
1.419690
0.697008
0.227063
0.111181
-0.255900
-0.777203
-1.828904
-2.838803
-2.473856
-2.927577
1.044549
-3.878229
-2.424955
-6.810025
-6.407741
-4.477365
-3.436369
-2.261574
-10.145232
-14.357838
-8.112952
-13.972458
-12.565195
8.791054
48.132327
68.772049
86.130229
90.504534
97.680170
96.119431
92.629026
118.909227
139.089872
137.146452
127.972741
95.433225
85.414367
73.142626
50.665430
38.146276
20.662926
3.446346
8.245254
3.386468
5.704322
-6.007553
-10.446371
-7.957883
-7.696000
5.005486
-5.172832
-1.128635
-13.883120
-4.514804
0.676222
-5.508004
-5.077163
-5.919970
-1.876545
0.441099
-0.542188
3.470700
-2.331609
-1.376985
0.171970
-0.444838
0.685827
0.039919
-0.127974
-1.071031
0.808036
1.530871
-0.221310
1.665418
-1.054102
-3.671427
-1.326888
-2.473305
0.669315
0.732325
-3.226800
-4.873292
-6.774783
0.978768
4.552143
2.913969
3.046423
19.062385
65.214305
77.892185
97.687395
106.529178
114.434904
105.447112
117.339579
104.067754
87.556377
70.674755
51.142287
43.689786
38.684394
31.149019
28.757159
11.330202
11.231773
3.860063
8.672085
3.795729
1.376436
8.278677
-5.447023
10.094379
1.258816
-0.852782
-4.808565
-2.704292
6.568206
1.023575
-2.306899
-2.168822
5.020231
-0.532128
4.216310
-1.505378
4.199611
2.010838
-1.547254
1.344671
1.428243
1.531838
0.376261
0.142174
-0.243714
-0.523985
-1.479993
-0.248964
-0.315354
-1.645070
-1.894877
-5.429405
2.210141
-0.609961
-4.054972
-4.426678
-4.781488
-2.246621
-0.904568
-5.972636
-6.335894
-6.597778
-6.859662
18.685740
48.463134
81.774062
92.286786
93.426804
103.123263
102.539179
99.960829
96.339632
69.785924
62.956011
55.788123
45.658025
25.942976
23.384882
20.900659
3.502899
-3.913831
-8.768878
-1.428775
-3.801687
-6.105038
-8.287350
-12.710222
-16.795537
0.884140
-15.794952
-15.241057
-8.825941
-15.692510
-9.762924
-7.518794
-5.482660
6.255573
26.294108
31.286159
29.975162
21.722952
15.268795
9.469320
5.075960
3.427312
1.195001
0.696218
0.135087
-0.347155
-0.082622
-0.128852
-0.602825
0.840131
-0.905921
-1.037263
0.490084
-4.092221
-3.555306
1.801363
1.975444
-0.553767
-0.586226
-0.636389
-0.692455
-5.996020
1.079585
-0.789831
19.062385
68.943007
90.361269
95.184905
98.925797
121.107409
108.955515
107.254169
111.072624
87.386694
63.441017
63.380016
46.218369
33.753324
36.167732
26.098897
16.191303
8.783266
8.714847
-1.001305
-8.143848
-0.964912
-5.562061
-5.447023
3.496763
3.375663
1.215408
1.167800
3.035069
1.073984
1.016574
-0.672783
0.891953
2.217644
3.318500
3.028594
-3.628528
0.530691
0.455078
-0.266556
0.828778
0.231040
0.412497
0.513141
0.024673
-0.380154
-0.777203
-0.877371
-1.562854
-0.856034
-4.913588
-4.917490
-3.007438
-6.174009
-3.725506
-6.434057
-9.434089
-4.756145
0.585864
-2.455957
-7.637626
-2.807342
-8.447841
-8.804335
6.806755
56.484863
86.221985
93.784949
100.194813
111.840798
115.603026
95.318691
99.069632
75.056562
57.891116
35.942686
30.838170
30.925861
20.861036
18.381214
13.358147
-8.802669
3.462979
0.995872
-3.809163
-13.197053
-5.983181
-3.614780
-14.612856
-7.687552
-9.538930
-5.191110
-1.128635
4.425963
-6.226072
-9.118203
-3.948168
-2.239145
-0.748274
-0.690183
-5.934069
-0.536655
-2.010641
-1.024250
-0.304289
0.971553
-0.156294
-0.371664
0.006801
0.324989
0.325456
-0.132786
-0.619664
1.375512
1.021781
-0.309834
3.893390
-1.336991
-0.430817
2.973080
4.481432
4.814974
7.992197
7.141527
6.012303
2.811791
-33.800131
-50.563685
-34.455074
5.323170
35.194731
55.937897
77.592333
86.741925
98.253071
98.309724
89.231473
75.546225
53.420697
50.945963
51.240449
36.167732
28.812409
36.098178
23.587987
6.340926
3.871416
6.248403
1.397439
3.720041
-0.952125
-5.475783
-5.320482
-0.882290
1.214008
1.172001
1.122992
2.902616
2.739888
-0.671799
2.384157
-1.973494
-0.531144
-1.650191
3.737378
1.445632
1.180725
0.995291
0.798503
-0.161310
1.192077
-0.055082
0.021873
-0.618406
-1.249970
-2.187275
-0.706508
-0.319503
-2.365401
-2.694867
-3.032781
-0.553253
-3.750849
-1.820473
-3.223119
-6.146831
2.022566
-8.644530
-6.031771
-8.123755
-8.469447
-6.910349
8.801445
48.463134
75.554335
88.886682
104.488132
100.801227
105.737950
105.094991
94.528645
67.717282
58.001384
45.744744
35.874805
33.322702
25.893935
18.398671
10.890100
-1.449522
-1.434307
-6.287824
-8.608368
0.971583
-12.960216
-8.126840
-8.000123
-9.841411
-11.591828
-5.185017
-6.893453
-6.589330
-4.520897
-4.240625
-0.892120
1.982647
-3.344976
-3.015962
1.493639
0.380860
0.325480
0.267185
-0.309821
1.818480
-0.731142
0.062181
0.068179
-0.039344
0.726950
-0.451277
0.654697
0.310853
0.378065
-0.306883
3.882453
-1.333624
-1.468333
0.666514
-0.513439
0.785535
3.694761
0.911556
-2.357416
-0.726881
-8.152883
1.128593
19.153811
56.956171
84.184644
95.392732
113.245012
107.511659
112.428558
116.992078
101.723160
84.766120
65.730363
51.093206
50.995044
41.245061
31.269054
26.225100
21.209448
13.666657
11.155218
6.254571
-10.551408
-47.885622
-65.365675
-54.999471
-49.264786
-45.484112
-21.299055
-20.777749
-17.929510
-4.400182
-12.829844
-2.276590
2.410647
-0.572455
4.549851
5.369816
1.649988
3.266998
1.211000
1.010428
1.855860
-0.162294
0.152626
0.326915
0.018922
-0.388602
0.094244
-1.523204
-1.145456
-3.645458
-4.281474
-1.188728
-2.223891
-2.437141
-5.868281
-1.820473
-5.747125
-0.784236
-9.416140
-5.558691
-14.398283
-2.814818
-6.640017
-8.847547
14.750357
54.921826
82.045436
99.777074
102.450629
102.809500
110.390181
100.058352
89.349437
75.199800
48.320706
40.853289
40.930590
33.417458
15.946696
8.518489
8.462235
1.013361
1.010446
-6.281731
-10.997317
-6.105038
-5.995367
-5.867417
-1.298761
-11.999713
-13.713126
-7.163784
-4.977860
-2.915748
-4.520897
-10.843298
2.148977
-2.227930
-4.604083
-3.015962
-0.623792
-4.169906
-0.455050
-1.645070
-0.300140
-1.427688
-0.979952
0.058295
-0.012448
-0.224323
0.116220
-0.134753
-0.180982
-1.317179
1.029350
-0.308851
1.347238
-2.277742
0.621706
0.676316
0.733726
3.491210
0.844345
-2.185661
-0.695405
-0.726881
1.085186
-0.794749
15.212513
66.968210
86.117770
91.114604
108.999550
104.769089
112.542007
107.679359
106.407579
75.254541
58.257390
53.523627
45.996804
33.720931
31.299063
23.679413
13.773219
8.783266
6.297749
3.837357
-0.981633
-0.968846
3.640570
-5.447023
1.296622
-0.881306
-4.986873
-4.797062
-4.607250
11.951097
-5.873985
0.956364
0.891953
-1.970126
-0.523275
0.688918
1.657557
1.422925
1.949156
-0.259671
0.809856
2.197854
0.684672
0.470379
0.015704
-0.397049
-1.236813
-1.881534
-3.323372
-3.092031
3.568971
14.135343
21.484038
22.053758
23.539738
23.506068
24.228926
16.632150
10.578363
6.858269
4.056659
2.504922
-1.088525
-8.793533
14.820182
52.543134
77.859202
91.378826
100.090226
98.479190
105.737950
105.503921
84.279831
70.187377
48.137846
43.301217
35.806925
15.946696
23.407048
23.340551
8.430089
1.014332
-3.876449
-1.424626
-13.420731
-10.813668
-6.007553
-3.592351
-10.154694
-9.841411
4.988441
-9.171633
-1.125869
0.752005
-9.710294
-5.896606
-3.917704
-3.613061
-0.755190
-3.022055
-3.767745
-2.345748
-3.532537
-0.378978
0.213748
-0.233749
-0.954608
0.062181
0.026613
-0.333564
-0.313199
0.857382
-1.488835
0.320655
1.714764
-2.595292
-4.645435
-5.174498
0.616106
4.139338
-3.036989
2.141957
-0.595078
4.027845
-0.693438
-2.508964
-2.599893
-2.727867
17.053543
61.226313
92.379236
94.977078
109.462884
116.621860
110.066172
107.679359
101.128287
80.486155
60.492886
45.952491
46.129743
26.250341
33.656145
18.757879
13.746579
13.679977
8.714847
3.833573
1.398840
1.379236
5.952328
1.324627
-0.905896
3.387016
-0.846880
3.167523
1.120192
2.887479
2.739888
2.562022
-3.658191
3.596070
0.747728
1.846775
-0.430817
1.445632
0.442476
-0.882347
1.313830
0.628206
0.145625
0.453275
0.011353
-0.605249
-0.131397
-1.501598
-2.447310
-2.473856
-1.675534
-3.446114
-3.032781
-4.299541
-5.828808
-7.570142
-8.237183
-4.798384
-5.127850
-7.108286
-4.332018
-6.361238
-12.177380
-8.836744
24.758227
46.498899
71.602062
84.668719
89.100237
103.123263
105.842538
105.197223
81.909612
70.120468
48.320706
53.248457
85.738520
90.892901
88.313511
85.657482
72.796307
52.592936
37.601848
20.445004
10.599143
8.068455
-1.359618
-1.331956
-1.298761
3.023870
-5.361710
-7.197576
-6.893453
-6.572434
-2.766222
-12.435845
-5.465765
-0.820197
-3.314512
-0.691566
3.600267
3.093979
1.084468
-2.331609
-1.358706
0.167112
-0.163210
-0.085754
-0.079207
0.053209
-0.088524
0.187632
-0.596089
-0.751005
-0.899186
-1.783080
0.491484
-1.333624
-2.525072
-0.471145
0.733726
0.784134
-2.017274
4.009340
-4.026311
-0.733766
2.921538
4.940741
26.853652
64.988390
80.021219
89.020616
106.529178
109.592318
111.974759
117.571246
89.842050
82.635520
63.136012
48.564624
43.522071
31.119010
26.124138
18.739790
11.264583
6.347094
6.279244
1.419843
6.149711
-5.665594
5.946160
3.572451
-5.274467
-3.000653
-0.846880
-6.793320
3.023716
2.883694
-0.710159
0.949363
-3.646687
-0.565570
5.774466
0.683317
1.627282
-1.269637
1.184510
2.843487
0.289850
-0.903044
0.821026
0.308411
-0.021606
-0.198121
-0.887025
-0.926114
-0.266944
-1.468377
-1.718184
-1.986270
-2.211705
-3.421383
-1.674686
-3.009869
-1.996166
-10.238131
-5.170090
-2.474647
4.068023
-8.177769
-4.801168
2.734456
14.942374
59.013600
71.680745
95.485138
112.056544
101.210156
103.357039
112.576125
89.692429
62.896166
53.248457
43.219208
28.434264
15.961797
15.991999
18.468495
10.931665
3.472959
1.007531
-1.424626
-3.812901
-8.456307
-15.233360
-14.923108
-14.566319
-14.116454
-9.528127
-9.139224
0.793783
-2.908271
-6.251416
-0.955744
-8.460324
-5.001133
-3.296233
-5.315010
-6.903101
-3.235530
-1.211157
1.556757
10.479188
10.053812
7.560699
4.081439
0.684190
-2.065205
-4.862360
-5.217671
-3.710378
-5.161186
-3.574404
-3.376871
-4.580915
1.491044
-3.563442
-5.112646
-0.517374
-0.555734
-6.385548
-0.642291
2.679338
4.564480
2.936676
1.132794
25.177290
67.356657
80.290047
99.335008
106.982977
114.671340
119.757505
110.311852
96.642461
77.714969
70.811061
46.218369
46.129743
36.028625
31.209036
28.674286
11.297392
13.693297
1.426844
1.415642
-5.723113
-3.310485
5.964665
5.816628
-0.906880
-5.147926
-0.847864
1.164999
-4.584242
1.065582
-5.849577
2.558238
0.882151
-1.939816
0.739327
0.674916
1.615928
0.522289
-1.040631
-0.251802
1.276821
0.586578
1.601855
0.162728
-0.033791
-0.413945
-0.135547
-0.913928
-0.266944
-3.184134
-1.724277
-1.218633
-2.211705
-0.568467
0.440127
-0.684650
-0.741359
-2.156906
-0.852009
-0.918399
-6.074011
-9.960288
-8.512658
8.531271
10.898106
65.318664
90.788624
95.485138
103.199225
98.678945
105.947125
98.213122
91.803353
75.199800
55.840903
43.424232
40.969240
23.517877
30.925861
15.976898
8.430089
1.016276
-1.437074
-3.850282
-3.794210
5.692959
5.579327
-8.143736
-1.298761
-9.873819
-5.361710
-3.173679
-6.868109
-2.915748
-2.751270
3.937346
-0.896269
0.576149
1.803011
-4.181690
1.470352
0.373088
1.869245
-1.016774
-0.826129
-0.628007
0.359272
0.196269
0.016633
-0.593583
-0.091475
0.194633
-1.041089
-1.317179
1.683923
-1.074308
1.354807
0.557295
-0.435735
-2.778154
0.735126
-3.255560
0.847145
2.471197
0.995570
6.328741
-4.457701
-35.336501
-44.936751
3.281054
41.606807
49.540957
48.685914
72.970741
79.512667
73.869040
74.744093
60.668738
48.517927
38.610072
41.126427
38.535751
26.199860
31.089002
18.721701
6.316253
3.860063
-3.418252
-5.746121
-3.307117
-5.521798
-0.923601
-0.905896
-13.621452
-2.906357
3.148601
-0.780979
1.064182
-9.239253
-2.256383
8.365166
0.812139
0.739327
0.681917
1.646203
2.306913
-1.800336
-0.868876
1.770337
0.956073
0.855235
0.283738
-0.065788
-0.644721
-0.138313
-1.986795
-1.194199
-4.306090
-3.723595
-5.088128
-5.584531
-5.315662
-10.001750
-6.499844
-8.237183
-6.190042
-8.105069
-8.762948
-6.023323
-6.386581
-6.656913
0.794755
18.907398
59.214327
84.366787
102.302187
100.508576
112.866860
108.439393
109.722699
92.067663
70.187377
58.111653
45.831464
33.449044
23.473545
15.961797
18.433583
13.396386
5.937268
1.009474
3.419734
-3.809163
-3.738138
0.953123
-5.861324
-3.517588
-11.947083
-1.218539
-11.210258
-4.947396
-1.071927
-7.961712
-7.475583
-0.894886
-6.427705
1.806338
1.666621
-0.618260
-1.454136
-0.455050
-4.250449
0.210833
2.192368
0.392538
-0.235503
-0.041120
-0.042295
0.123221
0.857382
-1.052593
-0.771212
-0.271474
-0.307867
0.497085
-2.283493
-1.464965
-5.070567
0.729525
0.785535
-2.020642
-0.640324
0.984369
-6.020427
1.082385
-2.714396
27.112794
63.149644
87.842806
103.239140
109.231217
111.779559
116.917480
102.747870
89.231473
89.493149
58.144924
50.995044
41.047338
23.702270
11.352075
26.073656
11.286456
16.144189
6.279244
6.211393
8.501038
6.038683
-7.818420
5.804291
10.061569
1.249014
7.363575
7.098452
-12.184396
-49.602632
-46.727117
-51.695436
-41.861127
-34.714826
-25.548731
-14.026631
-9.649173
-5.595344
-2.465121
0.354261
-0.693754
0.956073
0.561308
0.448396
-0.018691
-0.749982
-1.582284
-0.568197
-1.218570
-2.027486
-2.432983
-0.452284
-2.272634
-3.455174
-0.626559
-6.578790
-7.118251
-3.509483
-5.220777
-2.500814
-9.460300
4.300968
-1.094057
-6.927244
33.084594
55.108423
84.830851
96.098532
100.613163
99.178332
101.175882
105.401688
109.293925
74.984943
55.682564
45.918184
38.545524
30.925861
30.838170
35.772985
18.381214
8.397944
-3.895140
-11.137754
-18.207077
-15.574637
-3.670852
-5.830860
-3.513850
-9.830608
-1.218539
-7.163784
-12.642758
-12.037767
-7.950909
-2.590530
-3.917704
-2.205502
1.793032
-3.040333
-3.725506
0.371145
-2.745554
0.256498
0.210833
-0.225450
0.362598
0.054409
-0.000000
-0.043278
-1.696508
0.200234
0.264645
0.877975
-0.936231
-2.603428
-2.082178
-3.238014
-5.729369
-1.640088
-0.526226
3.485042
0.849946
2.497688
-4.078078
-4.290897
-4.457701
-6.598063
23.094126
55.145049
82.058258
102.069437
112.306982
98.382101
110.510435
114.924449
106.199752
75.254541
60.551503
50.700559
31.119010
23.679413
31.209036
23.656557
16.159894
6.334758
-1.002289
1.414242
1.398840
-10.288412
-0.944256
3.557313
3.470273
1.250414
-8.994471
3.137248
-2.677350
2.868557
-2.397828
-0.656061
8.298564
-0.562619
0.737926
-0.471145
2.633828
3.113056
0.425673
2.766932
2.637425
3.091338
0.135823
0.612474
0.006801
-0.335107
-0.912369
-2.404451
-1.672676
-3.236765
-1.742556
-4.368317
-3.134156
1.377208
12.335848
25.313187
28.553808
27.928477
19.614595
6.982965
2.415104
-2.859676
-2.956867
-1.141084
21.136905
65.540584
84.645226
95.689602
100.508576
99.378087
117.758279
105.401688
92.155766
70.455013
60.938766
40.853289
28.380513
23.473545
15.976898
20.900659
13.383639
3.482939
5.897497
-3.846544
-3.809163
-13.183895
-12.947059
-8.152184
-12.341810
0.881226
-9.495719
-9.171633
-1.125869
-1.074693
-2.743793
-7.464780
-6.957045
0.574205
-5.822745
-1.857855
0.426525
-0.526973
-1.974084
-2.280922
-1.824738
0.161283
-0.160443
-0.085754
-0.050687
-0.138077
0.348163
-1.832366
-0.609560
-1.871214
-0.263605
0.443876
-2.053418
-0.390489
-1.478436
-3.921413
1.998150
-5.933195
-4.930242
-2.222706
-0.694422
-0.731799
-6.297042
1.135594
25.147281
63.295486
92.587064
103.919837
115.852673
112.474562
108.029538
105.160615
96.359329
74.889935
55.841274
50.749640
43.564000
36.132955
26.149378
23.610844
28.398040
6.316253
-8.298427
8.620771
-8.086898
-0.965896
-7.810284
3.553529
3.470273
-0.870486
-9.015510
3.122110
-0.779011
-2.546009
-0.702291
0.938161
0.870949
0.793936
1.986797
1.801363
4.658944
-1.232592
2.651229
0.355661
0.764444
0.919064
0.133023
0.234392
-0.011065
-0.335107
0.101045
-1.300970
-1.681124
-3.249922
0.951405
-2.770898
-1.394326
0.397377
-1.700853
-5.390630
-3.290140
-6.233253
-8.157700
-2.497076
-7.810472
-11.836103
-14.169001
-3.098917
29.086763
59.481962
82.135894
87.243982
110.016687
115.547402
106.051712
108.143462
86.895824
65.184681
43.260213
50.857709
41.123841
25.967497
23.429214
8.502416
1.021133
3.476286
35.297822
61.759128
65.845212
55.410068
33.363230
30.385250
11.968798
7.288933
-1.215773
-5.136275
4.619137
-1.067778
2.438390
-5.845918
-3.905518
-3.600876
-4.536500
2.795345
-3.759297
0.368230
1.067835
0.263299
0.207919
0.160311
-0.152144
0.050522
-0.016896
-0.390514
-0.772893
1.563918
-1.087104
-2.451125
-0.926128
-1.084411
-2.904449
0.564297
-0.433768
-0.479997
-4.336335
-0.560652
0.859747
2.501472
-7.490132
-4.279393
4.792704
-2.724499
25.237307
69.583592
92.379236
93.102566
109.347051
103.002270
117.272133
107.891954
99.083816
84.848577
58.257390
43.605928
31.119010
36.132955
23.725126
18.739790
6.359431
16.065667
-0.998354
8.595114
-10.477769
-0.960978
1.345630
-7.647570
-7.468584
-5.101911
-2.889518
1.163599
-4.549731
6.439921
-4.101085
-0.659012
-3.600672
-3.301575
8.276253
-0.470161
-0.419014
3.121608
-0.300982
0.968800
1.245980
-0.525367
0.359516
0.333542
-0.005533
-0.763140
-1.123498
-1.999952
0.655338
-3.197292
-1.061631
-5.914173
-2.242170
-3.480518
-5.960384
-4.198586
-9.666368
-3.509483
-0.858925
-12.007023
-9.526088
-10.012918
-2.956867
0.798641
33.045944
63.382689
80.261857
89.172185
103.306167
99.278210
105.947125
108.038875
89.863925
65.682274
45.831464
53.248457
35.942686
35.874805
21.019525
8.478307
5.965676
3.476286
-11.224177
-1.420476
-6.214709
-10.781260
-12.920743
-5.849138
-14.566319
-11.933925
-7.417220
-3.158727
-1.124486
-6.530195
-6.175385
-2.560625
-0.883821
-6.341282
-7.078778
0.473161
3.511868
-2.321377
-3.456917
-1.608513
-1.279499
4.764570
5.954515
3.744140
-0.135473
-3.631817
-4.798548
-5.517090
-6.944647
-6.366652
-7.000389
-6.438007
-8.168137
-4.250019
-1.491907
-7.460459
-1.788268
-0.560652
2.285763
2.512826
2.690691
-4.296649
-6.321449
5.027096
25.117273
73.727221
91.275035
102.624766
109.694552
108.066989
112.201658
114.470650
79.786951
77.489054
60.610121
50.798721
38.684394
33.720931
18.685524
23.656557
21.004724
6.334758
-1.005240
3.826004
3.765454
6.026347
1.340029
1.312025
-5.268715
1.237812
-2.889518
5.101115
-2.660512
1.059982
7.797716
4.138873
-0.612783
0.793936
1.975444
-2.737891
2.602987
1.369944
0.425673
0.355661
1.701918
1.291405
1.754594
0.259065
-0.084479
-0.626566
-0.676307
-2.013110
1.136319
-2.646702
-1.736463
0.325480
-0.513142
0.398349
1.496965
-1.854117
-7.131408
-3.509483
-5.220777
-8.881366
-4.405132
0.741318
-2.964344
2.747763
27.037187
63.597545
84.645226
89.838360
101.136101
98.978577
94.390564
107.829700
91.891456
70.455013
53.399731
43.342222
25.967497
28.461140
25.967497
13.485610
13.409132
-1.441223
-8.768878
-8.692847
-6.214709
-10.802866
-10.608414
-1.329189
-7.907196
-5.532310
-5.367803
-3.169941
-3.035368
-2.893319
-7.950909
0.669420
-3.905518
1.966014
1.786378
-0.679118
3.519904
0.369201
-1.955806
0.894853
-1.322149
0.954508
0.109789
0.318169
0.001943
0.384856
-0.523420
-0.811014
-0.619664
-0.225244
-0.272457
-0.312785
-1.202282
-1.333624
-2.530824
-0.479013
-3.013981
-1.899403
-0.595078
0.914357
0.996971
1.040378
-0.761307
-2.727867
31.215073
63.149644
96.944012
108.169357
116.221631
118.804334
110.288304
52.134071
35.437422
11.242710
-5.953188
-8.428598
-8.444870
3.924398
-3.488975
8.826027
8.791818
1.433846
8.680637
-5.774880
1.394639
3.708688
-3.236395
-0.922617
-5.274467
1.237812
3.239426
1.153798
-0.779011
1.055781
-0.700323
-7.016739
-6.490747
-3.272815
-1.757958
-0.464259
-0.418030
3.018980
1.139097
1.529718
2.143552
1.958088
-0.306464
-0.117871
-0.073114
-0.365571
-0.920817
-1.334762
-2.710461
-2.069725
-2.475223
-0.463349
-3.167947
-3.488966
0.444013
-1.884022
-5.930773
-4.908206
-5.271464
-0.937763
-4.423411
-10.065549
-2.964344
-5.063160
21.063343
63.812402
80.526166
96.302997
103.306167
115.431041
99.375693
93.624064
92.155766
67.975498
50.905779
31.013552
36.010566
25.992018
23.362716
13.447371
10.931665
-3.917569
-8.777326
-3.842806
-8.608368
-3.734400
-1.352703
-8.152184
-7.907196
-1.251734
0.854993
6.774609
-1.121720
4.369147
-6.150041
-9.039257
-6.881425
-3.570412
0.519797
2.766937
-4.731655
2.119235
-2.669523
0.255526
0.204032
-0.224067
-0.645842
-0.198121
-0.003934
-0.165019
-0.797300
-2.908134
-1.081352
-0.794786
-2.294271
-4.206699
-1.235959
-4.239499
-5.755177
-5.133686
-0.525243
2.172232
-2.050951
-0.651143
0.996971
-11.450581
-6.321449
-0.798684
25.177290
63.222565
82.518226
99.878416
111.834111
103.108567
126.987306
112.509619
106.407579
77.639664
63.014010
58.426089
40.889159
40.968248
28.619037
21.168504
21.045669
13.640016
-3.428356
11.023980
3.765454
-7.924184
-0.944256
1.305023
5.650086
3.330251
-2.865944
7.064243
3.001010
10.030207
6.089275
7.261828
-19.793259
-39.758373
-31.200934
-25.113285
-23.107974
-14.778321
-8.162374
-4.913744
-1.098608
0.198834
-0.292993
-0.284750
0.007773
-0.566007
-1.706385
-0.594364
-1.273406
-1.535399
-2.500566
-4.473577
-7.664254
-0.578149
-3.894463
-10.252710
0.532427
-6.298071
-3.826311
2.255428
-6.141593
-4.667125
-8.566672
-3.113869
33.316495
70.185757
89.330849
94.484091
98.858809
92.627122
92.176736
101.033580
85.009176
58.001384
48.320706
35.942686
33.449044
15.976898
20.960092
18.451039
3.496245
3.472959
-3.876449
-13.565465
-1.406645
-3.738138
-12.907586
-8.109945
-3.502635
-1.255883
