26.128387
-2.057079
0.066630
55.185866
104.796136
101.539197
110.470984
103.972114
97.274259
110.720223
124.754012
117.889215
113.862952
109.351623
101.686474
110.187187
102.843649
96.652358
94.703228
101.899500
92.844298
82.686970
71.292542
59.397039
32.868659
45.701952
35.458191
37.921368
45.093172
32.488674
32.425344
13.035720
20.124048
22.409985
5.595756
-3.674021
-10.469394
-7.880124
-7.837529
-5.398332
-3.215242
-3.040831
6.205119
-2.771630
-2.619968
3.636109
1.973297
-2.020901
0.453928
4.540961
5.805584
1.806727
1.563187
2.780613
1.292399
0.316783
0.277522
0.064219
0.200763
-0.286814
0.209669
-3.608604
-2.564211
-0.896707
-1.081323
-0.341294
-3.207902
-3.488593
0.693192
2.007633
-1.951657
6.436632
46.945241
91.687851
138.548395
161.571163
147.383910
145.691343
155.410113
153.798372
161.938784
140.141072
136.250325
150.277673
152.413599
141.743733
128.327158
103.328391
86.519444
82.849503
61.357766
61.648286
55.729362
45.955528
50.165962
42.362758
42.612196
30.092549
10.763962
10.742217
5.848318
1.352152
-0.863988
-5.058594
-0.796664
-2.756056
4.919721
2.882657
-2.360450
5.744941
0.898582
0.824413
2.011420
1.859901
4.620893
3.106524
3.370534
3.560041
2.858621
2.249840
-1.121193
-2.552814
-0.452882
2.501493
6.242347
6.777136
7.827166
7.962780
11.143618
6.390477
7.144632
1.333130
-0.638167
-1.865447
0.507276
3.262303
12.126029
65.854030
111.144643
130.742273
138.223144
123.480325
137.006385
140.152912
136.517689
121.380089
126.492383
129.111273
129.609248
112.521764
109.140556
87.099098
65.139881
57.847079
43.340861
58.068292
25.728965
30.766555
23.165128
13.252557
15.496675
5.782659
-3.821892
-6.087743
-8.186810
-3.598190
-9.947013
-7.556400
-11.418776
-5.059782
-4.850497
-8.183976
-7.694243
-2.487263
-2.312851
-2.115690
-1.922321
-8.268193
-3.390583
-2.887959
2.263704
2.959185
-1.516391
0.425678
-0.449348
0.136464
-0.264652
-0.625541
-1.328822
-0.163634
-0.721981
-1.505130
0.435028
-1.130774
2.367616
0.611891
-3.745226
-0.480617
-1.829678
-3.338446
-0.587213
2.564466
40.190184
85.101646
106.243637
124.799123
128.308145
128.023687
129.809921
124.450234
119.134312
129.080039
128.563831
121.296880
105.238954
76.873765
72.288683
54.928652
55.462459
35.591792
38.250130
37.992181
30.658087
18.496114
20.582908
3.822078
10.785707
8.298248
10.405163
-0.877079
-3.003309
-9.146031
-6.864910
-8.502383
-0.734951
-2.469241
-7.370808
5.668342
-9.410077
-1.892316
1.973541
-2.716024
1.606106
-0.342229
0.442159
1.605059
0.295248
0.609866
1.849611
-0.047688
0.000000
-0.391876
-1.271697
-1.854558
-2.089526
-2.535726
-1.061637
-3.493426
-5.650979
0.378117
-8.088450
-3.028483
-5.844142
-4.915493
-6.736544
-2.555511
-6.142237
6.052600
32.320604
65.126239
92.176234
109.857708
106.720215
109.288972
105.502863
115.594105
128.109960
154.200551
170.435001
144.799334
132.527545
115.263523
90.591993
80.559315
75.514142
72.612774
48.003011
42.518454
25.335781
0.954653
0.939678
-1.413389
0.906920
-10.327916
-7.829010
-5.509130
-13.471809
-11.008124
0.741260
-4.616590
-7.683360
-2.506221
0.569984
5.777515
-1.945070
-2.856130
-3.484293
-0.491117
0.947050
-1.446531
0.600569
0.764602
-0.112786
0.023398
0.035658
0.105548
-0.690323
0.236769
-0.201036
-2.688788
-2.429986
-3.540064
0.544854
-1.404402
-1.542864
1.931873
-0.515214
-3.315812
-5.004327
-0.633030
2.715986
-2.495615
34.181071
66.519613
107.220898
117.098180
123.112025
106.172681
109.271776
132.090360
121.012919
109.635112
100.313759
77.097670
67.339874
47.962564
47.916268
25.993695
35.695257
20.928327
30.539026
20.725140
8.655711
6.174250
-12.653884
-0.912611
1.356431
-5.290588
-0.848092
1.252309
3.212212
3.113724
-0.737756
-4.198520
-5.645907
-0.621809
5.251302
-1.869239
0.743113
-4.910412
-5.301124
1.352311
2.629906
1.568161
1.719227
1.620031
-0.090700
0.155307
-0.051114
-0.811743
0.594691
-0.214150
0.185315
-2.078649
-1.772770
-3.634904
-4.081105
-3.501331
-4.973506
-5.452356
-0.778078
-3.557852
-8.266028
-7.356872
0.676680
-6.482999
17.590395
69.026663
96.349185
104.735265
113.944861
103.748138
112.558301
118.053195
113.826479
110.632942
101.471960
58.068292
58.012989
50.574124
38.212511
28.284467
20.778972
28.230592
8.340386
5.850624
-1.471924
-13.551517
-3.814309
-15.376283
-8.237924
-3.590607
-16.536386
-15.997156
-7.309347
-12.909834
-12.316637
7.814193
30.743368
42.611037
36.558653
36.135196
24.684415
18.021894
12.919473
4.426022
2.982278
4.644011
-0.265546
0.425678
0.068323
0.062697
-0.280298
0.105548
-1.287296
-1.363358
-0.201971
-1.488155
-0.285191
-1.150554
-3.135724
-1.414292
-0.438539
-1.687919
3.400757
2.231124
-0.590018
-0.641446
1.034082
6.451356
10.388968
56.838201
93.549504
119.711140
112.177564
110.780500
118.637402
121.494637
121.500382
111.048764
93.262609
60.021375
60.311895
48.101452
38.213280
45.604052
33.251236
35.660768
13.591682
6.297243
1.442010
6.137352
1.416336
-3.197816
-5.415072
-7.482431
3.435703
3.322064
1.206667
-2.693418
1.119662
-2.449461
2.674318
-0.613394
-0.574122
3.456104
0.730276
3.974648
0.594776
3.004391
-0.282386
1.543562
-1.109043
0.579562
0.132648
0.577042
-0.076671
-0.768317
-1.153592
-0.587692
-1.243401
-3.298463
-1.809703
-2.074388
-5.869525
-5.537179
-3.944321
-5.506771
-4.676960
0.544714
-11.323830
-12.276469
-6.218909
-1.095020
2.623363
55.778395
86.585808
94.238672
109.714422
103.090116
106.160885
106.555297
102.219357
103.622368
84.475675
67.607785
58.012989
40.655843
28.284467
25.802687
23.342809
8.372496
-1.487628
5.822305
-1.460502
-11.078839
-18.082179
-13.048137
-12.822941
-10.284384
-3.495818
-11.855921
-3.264533
-5.096715
-4.862808
-6.397809
-6.031489
-2.506221
-6.671246
-0.795210
1.682912
0.429594
2.293807
1.138440
-1.103344
-2.010496
-1.138759
-0.519444
0.419115
-0.272074
0.098488
-0.413062
0.756407
-0.944950
-0.715388
0.977300
0.427896
2.121630
1.458375
2.632051
0.670371
1.935661
3.400757
2.215972
-2.093415
-19.964775
-43.541160
-52.551256
-43.206291
-6.608278
45.320142
74.075442
73.956081
88.793060
98.236754
107.526900
110.168298
100.215508
90.757821
64.648966
54.982033
47.916268
47.869972
38.139580
40.740750
30.658087
15.954428
13.538745
6.248046
-3.323091
3.750106
-7.763123
3.606163
-0.874273
7.668432
-2.874737
-10.806137
1.163877
2.954629
-2.442867
-0.654536
-0.613394
3.726689
-3.163036
-2.891434
1.772777
-0.383371
-1.986092
1.113668
3.202714
2.554230
0.860951
1.310041
0.128792
-0.053082
-0.091371
-0.443612
-1.719506
-3.262582
-3.311710
-3.947558
-4.437691
-2.326761
-3.578002
-3.986917
-1.937487
-8.570131
-4.992165
-8.372003
-4.216485
-2.779213
-2.911918
6.413829
44.151327
83.074179
107.093665
97.386958
112.454305
108.560884
104.313185
107.146642
115.506988
72.404317
65.389459
45.745436
40.733356
50.670547
25.851835
28.230592
8.388550
8.340386
8.308277
-1.470496
-8.740548
-3.821892
-3.753644
-5.989256
-3.586815
-1.312025
-11.816181
2.827952
0.775889
-4.856652
6.028518
-1.007932
-0.946543
4.928775
-2.130856
-1.937487
-1.751700
0.380925
1.145040
0.274229
0.795258
1.076107
-0.195590
-0.510903
-0.212976
0.129143
-0.237364
-0.415386
0.233917
-0.702201
-3.881846
-3.848412
-1.935167
-1.259346
-4.412104
2.871887
3.142472
3.388458
-1.905503
-2.063745
-2.235174
-2.360450
-7.837972
14.078595
49.642026
89.640007
111.524925
107.553883
100.373207
107.135890
114.448655
107.481181
99.724256
93.262609
64.523312
50.360592
50.409250
42.778487
35.695257
35.626280
30.628322
20.847052
15.938833
15.751684
13.207886
-12.551939
-48.961606
-63.638756
-68.582696
-56.351486
-50.065416
-46.797607
-39.062876
-28.141531
-19.915027
-8.843702
-6.789449
-4.835912
2.090968
3.117873
-1.516490
0.573381
0.490654
0.415059
2.565955
2.461590
-0.448354
-0.430037
0.042790
0.124602
-1.045899
-1.005248
-0.633190
-0.302665
-2.189397
0.279844
-2.086699
-2.351383
-1.607621
0.438953
-4.361755
-0.792355
-7.815635
-2.430390
-9.233047
-4.542724
-4.758165
6.437911
44.468963
83.360642
103.415638
110.310049
105.984103
116.266315
111.921902
118.863433
98.734139
94.571992
75.370442
53.104424
35.798481
23.298389
23.387229
20.878203
10.889992
8.436714
-3.939430
5.856287
-8.672396
-3.810517
-6.075432
-10.502043
-8.110138
-10.012311
-3.378279
2.837852
-8.967548
-2.983957
-6.414847
2.326378
0.614909
-6.627714
-2.119482
0.476390
0.432401
-0.578205
-0.492545
0.940451
0.219944
-0.258408
0.438877
-0.114213
-0.027126
-0.141460
-0.071064
-0.115946
0.640170
0.312364
-0.244984
-1.018686
1.314431
-0.360930
-1.407698
-2.648123
-2.919725
-1.826381
-1.925283
-3.581756
-5.509572
-2.396713
2.886445
8.578552
51.706607
79.965728
116.211429
118.575051
121.726547
120.765923
119.428660
128.434881
111.488996
90.491409
67.079119
50.068647
37.881631
38.286980
25.793358
28.444799
20.928327
8.664222
8.664222
3.829654
8.519535
-7.899459
1.372120
3.583435
1.320773
1.282262
-2.864847
-4.741725
1.151041
-0.724665
1.042640
0.985587
-3.666632
3.683641
5.958234
5.479835
0.646123
4.349076
1.287915
5.081942
1.426719
1.549006
1.424322
0.106974
0.344093
-0.344418
-1.217614
-2.460890
-2.638164
1.733901
10.814655
19.279907
22.665445
27.168990
21.696950
21.594478
17.456864
12.393233
11.748951
12.780953
3.936286
5.940217
-12.082480
15.936499
46.454633
81.296963
103.530036
110.429174
108.677938
109.457155
106.984523
119.330480
101.374108
75.226743
60.262045
55.692082
50.815183
28.392218
33.343639
15.950236
13.380108
8.420659
-1.481917
0.958396
-13.551517
-10.959127
-13.127618
-5.964634
-8.059024
-10.001428
-7.598995
-9.337568
0.772146
-8.586645
-2.836086
-6.031489
-4.062599
2.002995
-0.795210
-3.126970
-3.927283
-3.450216
1.141740
-0.408312
1.342302
1.042125
-0.504277
0.071131
0.075896
-0.085715
-0.069194
-0.114076
-0.956267
-0.198231
-1.471179
0.433601
-3.540064
-5.769903
-1.407698
0.673223
-0.478747
-1.826381
-0.547005
-8.015401
-2.261548
-0.675107
1.085430
21.621336
55.458567
84.004176
111.651514
112.550247
108.708651
120.132978
112.715214
121.987846
109.419719
83.353815
55.035414
57.581775
50.214619
33.058475
28.362589
28.225571
18.532029
11.155379
13.366698
13.353464
-5.658383
-3.243970
-0.905130
-5.358488
-3.046167
-5.069911
1.240899
3.170544
-0.753652
-0.721860
2.784170
-3.915601
-0.604979
0.851513
4.655530
3.080975
4.947073
2.429112
4.446743
0.403649
-1.876623
1.088488
0.484862
0.638327
0.110694
-0.370911
-0.104220
-0.763276
-1.456758
-0.308376
-1.625040
-2.589792
-1.315671
-2.376005
-4.690550
-2.936151
-4.395831
-4.762151
-5.060317
-2.422806
-9.193307
-6.270023
-8.423400
12.125203
54.461827
87.888604
96.790411
103.743425
100.010529
93.386836
100.615916
102.820647
103.622368
126.713252
127.563677
130.788884
101.025841
90.764058
78.666206
65.701431
58.178898
42.888537
27.961216
18.094492
-8.714991
-3.810517
-13.074631
-5.946167
7.609900
-10.001428
-11.763194
-7.292309
-8.945782
2.603564
-2.832295
-5.988894
-0.939404
-3.724049
-4.711036
0.470775
-1.755492
-1.509041
-1.292922
0.267677
-0.875850
1.469000
-0.481528
-0.276784
-0.027126
-0.027117
-0.247254
0.756407
-0.570332
-1.244844
0.367991
-1.005499
-0.323528
-1.272533
-1.417588
2.902635
-4.106115
-1.836272
0.840103
-5.084525
0.982735
-4.113644
-0.715315
17.962900
55.458567
102.176189
112.411048
113.419841
107.205713
103.496408
117.472742
101.014318
112.149346
81.103632
57.414548
60.079479
45.604052
33.219109
37.992181
32.962095
28.170765
11.111888
11.111888
11.003161
3.784198
6.045107
-3.178035
-5.352830
3.500099
-7.193720
-4.900159
1.186699
-0.751782
1.098267
4.501545
-5.549670
-0.600303
-0.556356
-0.509603
0.711734
-4.692402
-2.223744
4.459977
0.402222
0.867449
-0.168309
0.762557
0.750216
0.102132
-0.247053
-0.473970
-0.185597
-0.659731
-1.360355
-1.637350
-1.164009
-1.327046
-2.388316
-2.659156
-4.055069
-3.182369
-4.753631
-2.248395
-5.511827
-9.272788
-8.053380
-1.103586
4.576286
50.485758
92.034873
109.947741
111.024801
102.584959
102.739043
108.379507
98.065727
94.844272
80.253005
62.972129
53.357302
30.913063
28.553843
33.280309
25.753539
23.209549
0.973371
-3.928056
-6.340116
-6.290873
-8.578686
-8.433862
-12.836188
-8.041986
-9.936130
-11.723453
-7.292309
-1.167831
-2.957416
-2.836086
-1.005077
-11.773188
-0.862310
-2.089149
-5.463239
-1.728951
-6.181734
5.110123
17.595255
18.472170
12.717415
7.986499
4.597847
1.020521
-1.745348
-2.583765
-3.986077
-1.764841
-2.304675
-2.740695
-1.021982
-1.974776
-2.206769
-3.472554
-6.078452
-1.707700
-1.842865
-1.938470
0.912845
-2.274735
-11.071568
4.686034
12.351816
61.872186
102.295694
116.605366
121.509412
115.780166
121.019101
115.502941
112.869290
107.441607
88.949296
71.869213
55.355697
43.235789
37.918481
35.695257
28.252975
20.908009
18.334497
13.459338
-10.485235
13.181417
-3.227486
-0.900455
1.342168
1.307936
3.382671
-6.969167
-8.678867
-2.650561
-0.713445
7.882699
5.838562
2.397795
3.634444
-1.773634
0.701750
0.640418
-0.359060
3.555369
4.288825
0.318069
1.051590
0.737958
0.527683
0.119109
-0.476886
-0.314699
-1.480081
-1.541949
-1.391132
-1.019929
-3.395479
-3.032783
-3.347988
-2.696088
-5.278229
-4.489541
-10.155498
-7.974597
-4.001044
-11.005360
-6.363732
-2.946042
10.318882
44.839538
79.778101
105.786121
110.667425
109.364325
98.210755
105.572500
95.544884
101.667662
67.931578
60.435046
50.911606
43.217500
28.365280
23.387229
15.919999
13.418373
3.428521
-1.486200
-1.467641
-8.663877
-3.791559
-3.723311
-10.480277
-10.251735
-7.760857
-1.259201
-3.230409
-10.849162
2.573865
2.448472
-5.937780
-7.084798
-7.974597
-8.585742
-4.285084
-0.646733
1.303432
-0.479696
0.262997
-0.325508
-1.533430
-0.458779
0.841837
-0.053082
-0.296731
-0.079479
-1.066627
0.246753
-0.206646
-0.883520
1.912542
1.344735
-0.363735
-0.408618
2.939533
0.738834
2.113696
-0.553551
0.912845
7.567392
7.980554
4.710633
4.870524
10.971280
29.556362
45.152029
55.144370
52.007547
67.115219
80.330197
79.675193
71.309920
69.441421
47.684789
55.035414
45.516183
35.798721
33.251236
33.122729
23.202080
15.938833
8.596134
-8.059854
3.772834
-0.917286
-0.901390
-5.352830
-11.774611
-2.947265
3.253880
1.189551
-4.532365
-2.515395
7.893572
-3.842042
-0.594693
2.215972
2.022784
0.703176
2.699697
-1.259346
-0.302022
3.533573
0.309512
0.636382
0.165453
0.081300
0.068088
0.135293
-0.341240
-2.138630
-1.567506
-2.513961
-2.342740
-4.225742
-3.075378
-0.573922
-1.656911
-7.571063
-1.994360
-4.804746
-9.366264
-2.494846
-6.031489
-11.676609
-8.499581
12.246153
62.784538
84.029055
99.800006
104.863764
102.370346
102.843986
112.930207
110.203717
91.666834
74.867494
60.608047
58.566020
33.501966
26.023853
25.851835
13.456638
13.329087
-1.491911
-1.474779
-3.890140
-8.672396
-8.527572
-10.730585
-12.783200
-14.689424
-12.067871
-9.598759
-9.250504
-6.968585
-2.961208
-8.075146
-2.638925
-7.041266
0.561560
1.795106
-1.888197
2.560002
-0.555362
-1.266381
-1.711216
-2.470429
0.985487
-0.769432
-0.095654
-0.022843
-0.363350
0.485822
1.693997
1.045441
0.316643
-2.133255
0.440733
-1.157148
0.550560
-2.444421
-3.809384
-1.701106
-3.146061
-0.552616
-0.597498
-2.287922
1.042640
1.092561
23.603750
69.787307
98.137992
112.411048
104.565743
115.904394
103.281015
113.289120
115.010840
94.649494
73.646545
74.730645
52.651858
52.651858
40.544692
40.505481
32.865715
32.962095
15.782875
22.997956
-5.681016
1.414910
-0.915416
8.136539
10.187710
3.477371
9.676693
3.253880
-8.575053
-32.618795
-50.897593
-50.121541
-39.119007
-40.759349
-30.940267
-23.068377
-22.261199
-14.890643
-9.304763
-4.116017
0.380828
-0.204776
-0.547255
0.431830
-0.056103
0.036898
0.337147
-0.348823
-0.830986
-1.584544
-1.950863
-2.334220
-2.768692
-7.321656
1.326531
-0.629601
-6.437964
-5.757079
-6.148865
-6.551534
-10.193617
-7.716009
-8.162210
-10.292794
12.215916
58.785079
92.454644
101.726814
98.226501
93.839546
99.012475
101.016776
103.021077
94.118191
77.627218
55.374447
50.718759
33.375305
33.343639
18.426661
15.859524
13.380108
5.884606
5.850624
-8.766105
-8.646839
-13.260086
-8.382748
-8.195329
-14.626982
-3.457902
-1.256346
-15.242234
-8.869601
-4.788942
-6.295580
-5.937780
-3.957956
-0.855172
-5.898557
-1.884405
-4.886443
-2.369849
-1.258798
-3.669375
-2.980539
0.161917
-0.447404
-0.242660
-0.018560
-0.035532
-0.075739
-0.425277
-1.012850
0.840933
-0.900004
-2.542262
-4.511052
0.561970
-2.478372
-0.446955
0.750245
-0.523629
-7.658595
-9.817898
0.996998
1.049772
-4.339980
18.144344
67.827124
98.826679
117.130615
111.629238
109.528651
108.597345
120.281722
112.756870
104.415166
79.075292
64.648966
55.355697
40.505481
33.251236
23.360843
11.220615
23.179399
15.907641
1.446289
8.545068
-5.630091
-3.224189
-0.897650
5.768373
-3.032980
-2.934078
1.222357
8.969968
-0.743366
6.476889
-0.675107
4.163314
0.901435
3.603696
2.015208
6.445131
2.675098
2.312269
4.155587
1.641957
2.348501
2.980927
0.651863
0.212127
0.046787
-0.478850
-1.871090
-1.184148
-1.576025
-1.415754
-1.050262
12.402164
23.507305
21.334514
24.554592
24.630337
20.502327
20.671149
10.629421
2.174586
-1.016498
-8.162210
-6.636342
19.929504
66.783998
94.751589
112.706330
113.470928
118.155866
105.482233
108.379507
100.493445
91.490042
72.543288
50.574124
45.832405
30.854460
20.878203
15.950236
20.798819
8.412632
-6.370894
-8.825739
-8.766105
-11.035307
-15.610440
-12.981903
-12.716966
-14.595761
-5.589151
-11.657219
-5.195202
-8.836952
-4.776631
-8.009848
-5.878146
-3.957956
-3.650184
1.791806
-4.225450
-0.635311
-0.548224
-0.463991
-0.391180
1.257346
-1.456758
-0.996729
-0.238868
-0.022749
-0.320790
-0.082285
-0.124362
-1.029826
0.852297
-0.255269
-0.297346
1.344735
-4.090280
0.623302
-0.447890
1.992481
-0.525499
-3.366738
3.997273
0.998424
4.544592
-2.535176
25.637185
71.747246
109.499500
108.582588
120.413424
114.432155
110.534370
122.736914
112.532031
99.822507
79.075292
62.097881
50.360592
43.111070
35.798721
37.955331
28.252975
25.643105
15.954428
3.829654
1.437731
-0.930377
-0.918221
3.640254
5.762223
3.477371
5.460890
3.246304
1.180993
-2.604407
1.079725
-2.367043
-2.225284
-3.570439
-3.287520
4.527865
-0.449760
1.640198
-0.349709
1.208367
-0.244984
2.294137
0.983944
0.148337
0.565380
-0.007583
-0.811743
-1.022997
-0.534610
-2.100409
-0.887225
0.260190
1.059245
-1.383919
-3.433178
-2.757643
-4.174336
-6.994331
-10.173472
-9.397485
-7.193627
-9.418503
-4.641211
-12.222974
16.134961
62.858751
105.068535
110.919654
104.751730
109.821916
108.244621
113.378343
98.256702
89.645638
72.682260
45.701952
33.501966
15.919999
18.409179
13.367353
3.471418
33.185312
57.681170
72.334831
63.954385
53.680391
48.163536
44.885337
23.541880
18.576044
15.909167
13.319581
2.798254
-3.082538
-4.758165
-2.786796
-4.241107
-6.954203
-7.828882
-4.583250
-3.034638
-1.687244
-2.345228
-1.994367
-1.023721
-1.341889
-0.636982
0.104825
0.201289
0.096328
-0.231994
-0.913565
-0.458244
-0.174855
-0.214127
-0.913191
-2.542262
1.356099
-1.321984
3.753361
0.697471
-0.495577
-0.528304
0.852940
-2.159350
2.662954
-0.691003
4.735231
23.871637
74.329057
99.400586
117.393240
115.575774
107.894400
112.925796
115.620084
113.543808
95.678292
81.659137
67.470251
55.088794
43.111070
30.777147
33.122729
30.687852
20.806415
15.860854
1.444863
6.180400
1.419189
1.387810
3.617526
-5.296246
1.296525
3.356155
3.223576
-2.726385
4.901272
2.859929
1.016966
-2.215394
-2.053855
0.817282
4.476798
2.933384
1.625046
1.386403
1.894093
3.992506
0.768961
0.587138
-0.560180
0.382996
-0.018466
-0.565913
-0.386739
-0.917162
-3.059646
-0.346923
-1.760460
-2.777211
-1.402877
1.346330
-0.648160
-3.059260
-7.153293
-0.823763
-5.239217
-4.111842
-4.407304
-10.027858
-8.564879
22.115760
61.359731
99.710203
97.863475
100.546137
110.050712
108.025281
110.657369
100.493445
94.118191
67.737302
58.068292
55.586204
30.971666
30.913063
25.974705
13.431128
5.929916
13.341843
10.723733
10.650995
-1.451936
-6.155453
-6.038499
-8.229405
-12.385795
-7.684186
-13.627914
-13.143990
-10.756434
-12.082480
-4.511947
-0.975096
-2.426598
-5.034760
-5.844142
-3.059260
-0.631028
-4.168168
-3.515192
-3.603140
-2.372482
1.787289
6.249254
4.527018
0.574798
-2.846237
-4.641085
-6.092056
-3.628432
-4.017208
-6.035452
-6.265489
0.512049
-2.235061
-0.409553
0.688913
1.981117
-0.524564
-1.978030
0.931387
1.008409
6.306668
6.553488
23.812106
74.329057
105.414073
117.524552
114.165206
109.645794
104.357980
113.518683
115.125621
106.809597
84.089290
59.847064
50.165962
40.701538
40.387846
33.154856
16.094790
25.542937
6.284944
6.217297
3.799350
-7.963617
1.387810
-3.158255
3.553131
-0.858378
-2.920891
7.276925
-8.554290
-2.607703
-2.482428
1.018393
-0.622745
9.684946
0.815855
-5.429483
4.051247
2.625901
2.238473
0.442159
0.965936
0.293822
1.319209
1.543977
0.595546
-0.030777
-0.702083
-1.120943
-1.260820
-2.609627
-2.622790
-1.095761
-0.462564
-3.994041
-2.505269
-8.088450
-7.773999
-7.140047
-8.944782
-6.714778
-4.087221
-7.835721
-2.870210
-10.425263
23.997913
73.471569
93.399130
109.118795
105.087832
110.165110
105.804152
106.307099
103.522153
87.182767
77.849859
63.032160
30.913063
38.467261
25.802687
15.935118
10.900384
15.814168
13.290822
5.867615
-8.766105
-6.223163
-1.423383
-8.331634
-12.650732
-1.333440
-7.709743
-7.479728
-7.181562
-8.836952
-2.919501
-6.218909
-5.878146
-2.426598
-3.607095
-4.617327
-1.857864
-4.810262
-4.124637
-2.734616
-0.382614
-0.822768
-0.234137
0.106696
0.052412
-0.007138
0.061332
0.337131
1.157499
0.693201
-1.804445
1.026544
1.189428
1.348523
-0.371216
-0.408618
0.683207
-0.491837
-1.842865
5.081081
2.462191
0.999851
4.544592
6.519444
39.072034
76.396937
115.494095
116.999303
117.989875
114.675887
103.819497
66.874520
48.852207
22.975275
8.706777
1.470536
-8.212229
-0.963103
-5.839451
8.740821
8.774865
1.450568
-3.349465
-3.326388
-5.635749
1.409205
1.386383
-0.891104
3.526615
-0.848092
-4.968060
-0.795729
-4.617240
2.981145
-4.255104
-0.659212
-3.768483
-3.513856
0.811576
1.969753
0.681781
4.533911
1.371251
0.433601
0.362285
1.199182
0.934747
0.584217
0.245986
-0.093710
-0.231285
-0.928577
-0.941784
-0.292672
-0.352634
-0.418306
-4.424444
-3.160569
-5.510685
-5.006155
-3.077726
-3.367033
-4.941051
4.968912
-0.960819
-7.857487
-8.314571
-8.564879
26.123934
68.125993
93.399130
107.070500
116.793482
101.479729
109.012314
116.456990
110.954861
92.108815
70.008262
55.639143
45.919373
30.854460
35.968626
18.374214
15.935118
20.699588
18.146940
0.967756
-6.309339
-13.458789
-13.246840
-10.665287
-10.425862
-5.736882
-7.718262
-15.745516
-7.138966
-6.857838
-4.715077
-4.499636
0.638307
-3.914868
-3.607095
-3.287012
-4.174336
-1.653120
-2.302139
-1.201924
-2.249030
-1.806039
0.547771
-0.148477
-0.079949
-0.002805
0.069890
0.367435
0.201111
-0.616486
-0.781322
-4.183935
-1.861608
-3.809981
0.577660
3.795916
0.696044
3.277764
0.813003
0.865777
-2.185724
-0.664822
2.818261
-0.720925
29.774667
72.698113
106.389001
115.152960
116.968252
116.898214
127.372978
125.702895
103.900298
100.412010
74.369279
54.982033
47.916268
35.660768
37.918481
35.419351
33.058475
16.079194
8.621667
-0.948143
-5.669699
3.738742
1.377826
8.093983
5.719176
5.559285
-0.822846
1.206667
-0.767678
-8.149415
-32.365236
-45.611653
-42.635573
-45.449938
-32.263099
-28.343769
-19.308354
-16.107617
-12.068900
-6.590181
-0.801102
-0.181400
0.885550
0.774503
0.136367
0.046198
-0.400104
-1.197124
-2.093001
-0.762103
-2.129763
-2.487563
-2.879440
-3.211683
-3.560964
-2.831508
-5.463239
-3.342411
-2.210479
-9.818967
-10.599489
-4.481170
-6.482999
-10.517991
26.092269
67.652347
91.705580
96.757301
97.039686
97.008174
109.012314
104.527949
103.822798
85.044809
60.723381
40.965897
43.258620
28.473030
20.878203
23.431650
20.858357
10.921166
-6.413982
-1.474779
-8.749067
-11.035307
-3.780185
-15.204568
-3.613356
-10.121140
-7.667148
-13.643524
-7.181562
-6.849318
-13.804288
-13.049366
-4.204174
-5.392560
-6.312109
-3.287012
-1.842698
-1.645537
-1.410460
0.292011
0.861255
-0.296955
-0.966406
0.095465
0.045861
-0.023077
0.301333
-0.092570
0.545470
0.731081
0.342317
-2.261571
-0.300152
-2.919191
1.534134
2.748894
-1.615391
-0.499318
-1.869239
-4.892051
-0.620874
-2.347263
-4.226812
1.109677
33.590882
68.889477
104.327267
115.410862
118.247776
110.817224
114.963151
118.787289
106.177588
100.313759
71.449743
61.976951
55.142175
38.029031
35.660768
33.090602
11.177124
13.525510
8.638689
6.174250
3.784198
-3.247266
-0.909805
-3.145068
1.332183
-2.986826
-11.111971
3.197060
-0.760197
1.109677
2.833413
-2.320889
-2.169240
2.333399
3.449954
3.167070
2.878037
0.593349
3.029924
3.261807
2.144778
-0.649453
0.556834
0.535020
0.561446
-0.073865
-0.528181
-1.717148
-1.363048
-2.241887
-3.298463
-1.114718
-6.039376
-4.967565
-8.562270
-4.973506
-11.441721
-12.395197
-13.212463
10.874178
34.391436
46.820334
42.306898
47.724350
82.978066
121.024354
133.970158
142.215676
130.167561
124.337443
122.986138
113.938513
106.066633
97.127987
72.960204
50.766971
35.798481
30.883761
30.913063
30.942364
23.253969
10.879601
-1.477634
-11.274732
-8.757586
-11.057073
-15.563608
-10.599990
3.151335
-3.522359
-5.515286
-11.485010
-9.087260
0.749683
-6.525594
-2.741297
-7.356872
-8.398496
-4.906974
-3.237768
-6.398224
-2.603757
-5.713421
-4.146261
-3.444178
-1.280334
-1.686857
-0.609390
0.148492
-0.022634
-0.049558
0.627264
-0.474727
-1.103385
-0.224412
-2.948323
-0.303892
0.524886
-1.341764
-1.483523
-2.812216
-1.770337
-1.885722
3.757437
0.948503
1.012688
1.065461
4.747531
39.266665
73.130325
102.382932
111.183743
112.482300
116.525532
118.331867
120.647320
115.699527
93.080277
73.791092
62.339742
45.428313
47.869972
33.315490
25.768316
23.360843
8.664222
11.035779
3.825866
-3.300014
-3.273640
-3.197816
1.363562
5.713026
-11.532493
5.399394
-2.789023
-2.676934
2.954629
-2.439571
-2.317592
-2.162647
2.306883
2.121272
-0.477811
0.663239
0.591923
1.329583
2.510752
0.349449
2.011447
0.860951
0.118385
0.042790
-0.217659
-0.596334
-0.454987
-1.021805
0.686364
-2.775151
-3.254001
-2.105165
-2.363694
-2.609912
-2.874596
-5.550303
-4.702517
-5.009203
-11.341804
-4.204174
-7.922785
-8.314571
-4.899740
34.047659
74.417924
98.593632
101.116050
101.833814
102.004443
106.769910
97.492801
96.289874
84.638285
67.996336
48.323948
43.340861
28.553843
20.878203
18.409179
15.814168
5.935579
3.431820
-1.470496
8.244058
36.902368
59.730475
68.096190
62.232837
51.487219
37.008325
35.774714
20.543854
15.936499
2.511169
4.094870
-0.959392
-0.892291
0.541906
-3.250079
-6.424717
-1.626579
-3.983158
-1.914346
-0.365483
-3.231361
-0.966406
-0.609390
-0.400395
0.030304
0.204551
0.633414
-0.848757
1.651139
-0.797806
-1.612639
-1.850291
0.524886
2.502908
0.647549
-0.462851
2.034148
-1.885722
0.872908
5.651320
-7.401953
4.599939
13.970851
37.592280
85.218255
102.617218
113.550349
110.541491
108.353525
113.862940
109.177774
99.134753
83.598974
64.523312
59.905168
38.102730
40.466269
23.270121
30.598557
23.247441
18.406327
3.859958
6.198848
3.806926
-17.308928
-3.204409
1.355004
1.323625
1.285115
-0.817235
-8.751537
5.011966
2.943265
1.058330
0.998424
0.932814
5.166191
2.113696
-0.475941
0.667518
0.589070
4.671727
1.807997
-0.226283
1.617094
0.201111
-0.078544
0.272353
-0.312209
-0.418571
-0.462570
-0.232710
-0.294099
-2.155320
-1.828169
-2.092854
-3.211683
-4.614369
-5.027921
-1.922321
-4.685479
-10.479036
-8.319015
-7.411286
-11.364400
-8.314571
0.741260
33.965418
78.235179
102.271659
100.896709
117.288894
99.399001
111.697834
111.644402
101.080554
75.083043
65.451853
55.745021
45.919373
35.866539
31.030269
18.374214
15.889762
10.827645
0.974307
-3.912889
3.392223
-3.848433
-10.817649
-3.704354
-3.617148
-7.897162
-9.772886
-13.549862
-13.081548
-8.706357
-10.120585
-9.617206
-0.962247
0.585895
-4.924013
-0.749525
-2.960773
-4.625252
-2.265207
-1.167800
-2.214954
-0.777270
-0.591483
-0.868943
-0.062817
0.017022
-0.046753
0.386375
-2.265669
-9.023572
-19.006825
-21.650949
-20.961951
-21.950502
-21.631743
-21.434007
-21.460976
-18.290333
-15.420690
-9.274137
-10.119987
-12.453346
-4.221153
12.055497
37.453392
83.021671
113.979119
113.550349
103.538462
113.051082
114.097226
118.667785
113.543808
87.998429
71.659478
49.971331
45.164706
47.684789
25.668148
33.154856
32.962095
3.867534
8.655711
8.596134
6.125053
-3.240673
1.372120
8.051428
-3.052760
-0.845287
-6.985207
1.199535
-18.039788
-2.551659
-4.164570
-0.653601
-0.613394
5.123636
-0.519889
-2.874458
6.074569
0.584791
-0.320723
0.407928
-0.220672
1.143835
1.446068
0.284099
0.172190
-0.317924
-0.109930
-0.171320
-1.414163
-0.308376
-2.206435
-1.865102
-1.308088
-1.452167
-3.629116
-2.880752
-8.008156
-3.416276
-2.233229
-5.409599
2.260382
-7.966317
-1.097875
6.413829
40.063963
83.169667
102.614853
110.429174
114.807309
115.670688
111.697834
104.938265
104.023228
77.553005
65.514248
48.323948
33.375305
38.285297
43.217500
35.832510
20.858357
10.858819
15.723456
-8.834258
0.957460
-6.198541
-8.433862
-5.989256
-5.835369
-3.488235
-9.707588
-11.445269
6.670704
-8.619293
-4.665833
-2.722340
-8.888629
-3.822536
-2.153606
-5.670015
-5.191165
-1.588663
-3.906978
-4.093273
-3.311710
-2.187472
0.143198
-0.348823
0.203894
0.079945
0.085579
0.397739
0.579562
-0.186075
-0.230023
-0.275840
-1.901217
-1.236269
-0.388982
-2.602856
-3.993838
-1.790117
-0.533915
-0.582537
-0.632095
-0.672302
-0.703159
-0.727470
45.318474
89.324002
112.831848
110.288712
119.279382
113.051082
120.376589
100.410647
60.949040
27.951537
3.882686
-3.398915
-0.960298
-13.048920
-8.244308
-3.379135
-5.811159
1.459126
-3.346168
-12.845030
-8.003715
-0.920091
-7.739064
-3.115398
3.503887
1.283688
1.238046
-2.762649
-0.761132
4.765980
-2.426384
4.292457
8.642033
-1.981327
2.083392
3.099424
1.723534
1.511406
5.318143
2.425642
0.329480
1.557517
1.413450
0.280311
0.343106
-0.357665
-0.827104
-1.904474
-1.828335
-1.848634
-4.745224
-1.156426
