430.396922
480.379785
153.123450
58.317430
42.957718
21.302793
11.252415
4.158955
5.213769
5.019944
1.332561
0.609799
0.117807
0.254355
0.140566
-0.134436
0.793326
0.182074
-1.731543
0.313167
-2.091904
-0.987608
-1.943722
-1.266996
-3.571349
-1.552883
-4.223578
-4.374704
-3.355301
29.042817
75.022067
116.558084
118.886500
130.928491
130.873194
129.170621
135.001550
130.328640
128.534529
130.137678
127.321704
118.495643
102.827652
100.069073
78.067091
72.827841
71.786381
54.851510
54.040611
52.534656
57.116923
42.877717
40.843187
31.876863
29.638436
24.841012
26.458312
25.202080
28.265614
24.790334
24.367288
22.763350
19.722907
16.371073
11.458406
7.495348
3.101523
-2.665197
-5.330393
-10.713202
-12.970624
-18.244771
-20.966214
-27.297464
-26.202902
-27.551498
-28.343487
-25.885354
-30.092205
-29.061886
-26.744265
-30.590248
-24.736215
-24.736215
-27.314427
-27.978142
-30.340501
-20.438167
-20.886978
-17.643424
-16.777086
-5.811813
36.944656
98.350560
144.934072
148.631429
157.174534
144.970379
136.953510
135.907409
132.633306
130.976243
144.588720
144.519569
144.731956
140.115641
127.287934
109.419732
97.371145
78.183618
63.594524
60.686070
45.230625
-4.014934
-43.231371
-37.955279
-42.773676
-49.228964
-39.365004
-45.080717
-37.795113
-25.765435
-12.181966
-17.952691
-5.300898
-5.115336
-6.700679
0.679864
0.640295
3.750289
-2.378370
0.510797
2.979990
2.710104
4.396905
-0.538046
1.759881
0.233816
0.188851
1.261471
0.806383
0.275508
0.025415
-0.381792
-0.318373
-0.129012
-1.097895
-0.776441
-1.585226
-1.814887
-3.813517
-2.307820
-2.526278
-2.806354
0.796755
-7.317248
-3.506542
2.578954
45.404314
95.323451
104.291262
124.081627
129.320297
126.930176
124.173035
121.177375
110.839840
123.053909
128.546027
122.544740
101.050456
93.462568
70.765867
71.035195
41.093947
28.620970
31.114036
26.257834
13.801966
16.117825
8.710521
8.633889
-3.232465
-10.007906
-5.293421
1.326953
-7.007481
-10.747999
-0.730170
-2.520998
2.811326
-2.228614
-2.082422
6.433547
1.999927
8.442945
2.551143
2.230709
4.609542
4.176658
2.168125
1.271495
0.934367
0.109345
-1.207326
-2.180754
-2.501048
-5.917911
-4.174411
-6.796099
-7.019303
-7.905234
-11.294539
-2.573131
-7.002906
-5.312415
-1.984524
-3.494758
-9.316366
-5.401568
-13.637532
-1.054160
-6.521196
4.430626
41.100661
76.680396
97.458439
119.033142
113.433465
104.843350
126.077048
116.835695
119.929104
111.940897
93.448568
64.729652
69.904980
50.488944
30.612295
38.029979
30.524580
32.958559
22.862309
15.490621
3.335959
3.300088
10.324968
5.493302
3.130518
3.052255
-3.475786
-9.566710
0.761700
6.546875
2.537024
2.432674
-2.695741
3.710931
3.452290
1.839180
-1.984524
2.653878
1.363080
-0.519039
0.270687
2.596761
0.652191
1.189615
0.742511
0.508293
0.125479
3.278544
6.826304
10.571114
14.424740
14.306571
15.055521
10.830115
8.554469
4.520871
0.672944
0.732665
3.383037
3.598713
-11.009345
-8.684484
-5.814379
-4.318760
1.162359
42.470811
73.074403
98.164049
91.646425
105.871189
102.140588
114.157028
106.969434
91.515431
89.771868
77.811973
58.569247
38.841642
36.113977
28.812323
23.762415
13.801966
11.334780
1.506114
-8.160812
-8.105134
-10.358337
-14.741884
-7.659709
-16.253543
-2.933584
-11.051829
-10.621403
-8.214522
-0.680894
-2.329324
2.552288
5.296133
-1.851764
1.965643
2.865414
-0.370908
3.825353
1.104722
1.435788
0.253447
1.304097
-0.065402
0.018936
-0.299137
-1.791198
-3.676857
-1.512781
-1.923026
-2.890739
-1.166243
-4.578190
-0.559977
-7.521138
-3.922974
-3.086521
-5.868746
-4.974228
-5.247725
0.595331
-4.404013
-4.632873
0.702346
-1.179899
26.543806
68.425076
97.263715
98.060133
104.619565
118.752592
121.845107
121.702968
111.831366
98.318020
71.813120
57.479076
45.100403
42.769770
33.053359
25.569214
18.145008
27.736484
10.635338
5.712584
5.673226
-6.135929
0.875910
0.862420
3.032690
0.811161
-3.338131
0.760800
2.667463
9.949836
5.956060
0.632202
0.591734
-0.900642
0.504502
4.143693
1.529389
0.370508
1.154379
1.675541
-0.952113
-0.290954
0.826525
1.118245
-0.052635
0.016022
-0.191674
-0.347612
-0.879436
-2.081974
-2.545780
-3.671283
-5.799875
-2.982753
-3.292959
-5.823415
-2.839963
-1.790039
-10.141100
-9.532684
-5.480311
-9.304805
-7.946545
-4.481203
14.932002
54.297296
81.591396
90.377491
97.080797
99.748980
118.614734
153.118824
170.344156
151.204418
137.659232
115.712929
100.820351
90.978016
66.258985
61.107015
41.250346
21.271702
6.408668
8.778639
-0.914728
-8.017640
-7.866513
5.946504
3.577012
-15.854151
-9.028759
-16.720355
-12.144790
-9.735231
-7.503352
-7.039546
-0.564426
6.335740
-6.747566
-3.809970
-1.409940
-4.722030
1.161862
-0.223978
1.685907
1.575784
0.783351
0.347759
-0.145295
-0.849287
-0.705137
-1.679901
-1.752091
-2.683479
-1.105063
-0.486873
-5.752387
-4.505190
-3.820413
-4.187924
0.479322
-4.905854
-0.881635
-0.948891
0.634000
-8.083161
-1.128727
0.723929
12.597431
57.773819
88.174745
99.454339
97.995641
111.834661
109.990409
104.912981
102.086538
91.101968
81.589808
62.096067
47.645711
42.728724
30.495342
30.232199
35.081859
10.718104
13.075838
10.521536
-1.472316
-1.448922
0.874111
0.860622
3.042473
0.812060
-7.418609
-1.233996
-5.034925
4.340664
5.876220
3.924590
6.766061
1.969618
3.126178
-3.136004
0.412775
-1.544794
-2.152523
0.261694
1.916159
0.616321
0.770299
0.654688
0.231536
-0.255206
-0.580643
-1.519152
-0.532788
-0.678980
-2.036226
-0.968115
-0.304611
0.556417
-1.377453
-1.526893
-4.080406
-1.825774
-3.321692
-5.114427
-7.194148
-9.368103
-0.697021
-12.174814
11.105030
58.578786
90.342921
90.573326
97.388665
104.644514
105.289836
105.187968
108.963957
85.520532
63.287536
46.214436
43.980952
31.381236
26.282817
26.407736
21.373092
11.378250
-0.931750
-10.646927
-12.950769
-3.268201
-14.831956
-9.956372
-16.375098
-7.262009
-9.069986
-4.755677
-16.049964
-4.324361
-5.822333
-8.646506
-6.606661
-7.481823
4.572385
20.187298
29.154729
28.932046
21.007565
17.034980
10.376102
6.923648
4.657003
1.658094
-0.208606
-1.564036
-0.897412
-2.375986
-1.666623
-2.672570
-3.130725
-2.803345
-0.538046
-1.575384
-3.846053
-3.061779
4.287405
-2.206302
1.982662
0.588136
-2.707212
-1.089250
2.527241
-3.081940
14.502062
61.917076
82.398123
91.277376
98.310066
112.184509
117.430581
114.597010
102.386793
81.274485
72.160043
52.663378
42.646632
47.645711
35.489393
35.387509
25.397608
17.953274
8.159642
3.322915
10.418079
-3.777862
7.728507
-1.384591
-5.727691
-9.806696
-1.273473
-9.130372
0.723030
-1.122878
2.393542
2.259843
0.581841
3.373573
4.391197
-0.729578
-2.820548
-1.529499
2.690606
0.258097
-0.883285
0.163671
-0.190071
-0.109656
0.191616
-0.214758
-0.628367
-1.308964
-0.545783
-1.209925
-2.690076
-1.719662
-2.767995
-0.345823
-2.425451
-7.160772
-4.159946
-5.782116
-0.538444
-6.699422
-7.204455
-4.189925
-13.544619
-14.100296
20.986280
50.739095
77.796542
92.749391
95.456671
102.665463
105.709735
102.575813
97.033190
70.496539
63.287536
46.389657
33.804057
28.839659
36.354737
11.465190
23.852938
8.914874
1.517766
-15.522513
-8.113088
-8.033548
-3.203227
-5.411053
-9.678088
-2.956325
-2.862113
-2.758154
1.187121
-0.692541
2.807517
-2.251355
-2.088920
-4.700818
-5.534753
-0.438102
-0.399577
2.341629
0.470478
-1.484399
0.803780
-0.519793
-0.604962
-0.168933
-0.001462
-0.703316
-0.144746
-0.212002
1.085166
-0.342127
-1.070649
1.053289
0.328241
5.082930
1.454387
3.856269
-0.777827
-3.513314
-32.156658
-46.711686
-52.418680
-44.407791
-43.004869
-42.679684
-14.880337
33.191277
67.904792
82.571916
104.395780
100.615845
105.240493
100.785435
82.572668
85.810023
69.569865
45.056995
47.691481
35.251665
37.703073
32.674161
15.565964
10.645684
10.593956
3.296827
3.257696
-3.766390
3.150084
-1.391901
0.830945
2.931600
6.922123
-3.192828
-1.175513
2.510937
0.657382
-1.002988
0.579144
1.950052
0.491912
0.451444
5.781833
3.129726
2.666654
1.568712
0.205938
0.570667
0.404359
0.376716
0.175876
-0.173647
-0.636321
-1.329578
-0.985865
-0.721213
-1.478797
-3.886497
-4.456179
-2.190188
-2.419850
0.699163
-7.821305
-5.802730
-10.488398
-6.709729
2.693235
-11.184016
1.134683
-8.451578
17.094418
63.465063
82.136550
104.190694
100.251040
105.073824
108.293655
110.010899
99.195758
75.639405
68.423345
48.696327
31.440614
28.866995
26.407736
13.947389
11.476058
8.889330
3.950332
-3.362414
-8.121042
-12.735556
-3.199978
-0.864557
-5.293421
-5.114173
-6.999527
-4.750076
-6.506378
-11.619366
-5.838242
-3.853835
0.929304
-7.456503
0.779275
-1.591867
-5.544904
2.316980
-2.505512
-2.091904
-1.193120
0.594264
0.148572
-0.039420
-0.025640
0.047662
-1.079937
-0.915441
-0.741807
-0.349437
-1.074473
-0.475176
-3.145217
-1.544794
-1.713038
-1.873636
-3.303010
0.517092
0.540474
3.694063
-4.354530
-8.115886
-8.486774
0.722131
28.323592
66.145996
97.154183
95.689862
100.632203
110.255349
115.333138
105.646638
102.787132
88.235152
79.604604
57.313430
47.645711
30.436866
27.924619
30.319913
30.319913
25.201488
3.332698
10.500845
3.264218
14.842667
9.993907
-17.057509
-47.072713
-58.114948
-60.224752
-60.016563
-52.375201
-47.712822
-33.451467
-26.609644
-26.504700
-13.470701
-9.716302
-0.723730
-1.709215
0.347126
-0.481025
-0.397686
1.276335
1.349295
0.646602
0.479040
0.005396
-0.468405
0.128180
-1.747025
-1.875838
-1.288346
-3.418091
-2.545282
-6.251363
-5.038520
-5.570223
-7.265857
-4.215624
-9.863261
-9.142370
-9.862951
-2.306583
-0.674623
-9.899806
-4.576429
15.165035
59.252106
82.045691
89.065940
98.004399
103.400287
110.557946
100.365037
82.338239
77.886363
63.528632
53.864178
28.976340
33.964266
33.772016
16.460426
11.454323
1.527963
-0.929958
-3.352668
-10.543859
-5.629512
-12.482364
-3.144750
-16.357733
-7.254055
-0.789300
-4.755677
-4.559624
-11.664403
-5.838242
-7.122001
-6.637581
-3.304887
2.064687
-5.112174
-0.395994
-1.231261
-3.298177
1.017106
1.796598
-0.513296
0.157312
-0.045692
0.021735
0.044065
-0.140360
0.463056
-0.277795
-0.887109
-1.738101
-1.235070
-2.232934
0.361515
-4.843352
-0.712033
-2.026586
0.510797
-5.162258
-2.489259
-2.691918
-1.084864
-1.122878
0.720332
28.357553
62.132315
97.373246
97.845795
111.362739
114.813081
115.099906
103.163633
104.905223
88.063321
69.368796
59.822416
37.739396
37.739396
20.543821
22.995230
18.022995
10.583610
8.159642
8.055850
3.257696
-6.086445
-5.956552
7.520923
-1.348039
11.309519
-3.299893
-1.212065
-8.715851
2.494632
0.651986
2.233755
6.579840
-0.855317
-5.857837
1.604391
0.396587
3.041902
1.799239
2.793328
1.231354
1.341311
1.882479
0.993531
0.041383
-0.381352
-1.076066
-1.734365
1.999616
7.807498
14.527900
20.338563
17.075679
22.227418
21.344599
23.479059
11.994362
6.140126
3.752768
2.498957
-2.319578
-7.750716
-4.402782
-2.667190
23.181072
65.463228
80.186635
91.650414
95.958019
94.226413
96.233264
103.077161
89.427255
70.496539
58.735953
43.815142
31.410925
26.432719
23.943462
18.983182
13.881288
8.897844
3.938904
-10.688155
-10.523246
-12.697577
-12.495023
-7.675617
-0.845742
-11.520234
-4.929324
-8.740169
-2.631454
-2.530744
-7.565193
-7.132308
-3.584963
-0.528589
3.302929
-2.744737
-3.515671
-3.926892
0.466109
0.385996
-0.701721
-0.146034
-0.843125
0.205707
-0.006185
-0.327827
-0.593800
-0.213464
0.622843
0.769586
0.250003
1.050028
-0.526349
3.193598
-0.650626
4.996954
2.963122
-0.826076
-2.290424
-0.960587
-1.024919
-4.571019
-6.615211
2.618548
30.365866
62.132315
95.166556
97.738625
113.815936
102.989932
105.883510
105.646638
102.086538
83.546977
61.856314
44.883365
52.511901
32.832160
40.154482
25.397608
25.299548
5.774433
10.552573
-1.482550
0.898392
7.832298
0.861521
-1.383129
2.983775
4.987266
-1.257390
-3.150767
-1.162354
2.475066
2.338106
5.349276
5.029916
3.266743
2.991235
0.439753
1.408733
0.334536
-1.948405
0.867414
2.172589
1.613923
0.838319
0.045864
-0.010307
-0.152689
0.142746
-1.463566
-1.495353
-3.542856
-3.570007
-1.837293
-5.464405
-1.318976
-2.520677
-2.767143
-5.545060
-1.871256
-4.859899
-8.443952
-5.703023
-13.197321
-8.152681
-2.673687
33.469475
67.994145
78.571923
87.618827
100.775914
108.803057
99.287948
100.658788
94.947671
73.238655
46.477267
34.028350
31.381236
66.509491
79.150994
88.828976
88.409972
77.886363
58.013562
45.206918
39.842752
39.138954
36.195853
17.244401
10.226298
9.856803
-4.923722
-8.740169
-10.266934
-4.329963
-4.077895
-0.613701
-0.571593
-0.527693
-1.734811
-1.575624
1.657082
0.550591
-0.279525
-0.838167
-1.165113
-0.885038
-0.094071
-0.159187
-0.008772
-0.076028
-0.146208
0.131297
1.102034
-0.913875
-3.108908
-2.047371
3.807203
0.366012
-4.919711
-3.049408
-0.782213
-0.843621
4.878221
-4.088557
-4.391642
0.669073
-4.799880
2.647897
28.323592
64.325479
93.698506
95.794670
98.414874
119.247394
103.550474
108.134071
92.904735
81.510977
66.924776
55.020582
50.007639
35.319587
18.110147
25.324063
20.425071
10.604301
10.521536
0.906486
5.628245
-1.434302
5.380849
-10.253943
-9.915781
-11.770592
-5.307083
-5.102965
4.458739
2.465283
4.014552
2.171797
-3.859697
-0.840697
0.471229
-2.950441
-0.624309
-1.395667
-0.451783
1.445014
0.187053
-0.958739
0.750495
0.784366
-0.063298
-0.296880
-0.819263
-1.216963
-1.566939
0.921871
-0.938877
-1.068825
-2.066955
-6.154962
-2.537481
0.725382
-0.485585
-4.597416
-2.007702
-6.915865
-5.718931
-4.273948
-8.152681
1.201686
39.649427
64.113401
89.398321
96.465063
103.893219
108.583697
103.956499
108.439083
87.404361
73.168970
56.249048
56.408695
38.915136
21.413648
16.491571
16.460426
13.960610
-0.938022
-0.931750
-3.352668
-3.300688
-8.009686
-12.482364
-9.925451
-7.468813
-7.198377
-6.991573
-6.713182
-4.526015
-7.956852
-7.482739
-11.877589
-2.069428
-0.528589
-2.996805
3.007144
17.086636
26.131775
22.763859
17.089591
15.055844
10.270769
5.238914
1.874100
-0.062526
-0.917651
-0.880319
-0.554443
0.626104
-0.345051
-0.413769
-0.472252
-3.111029
3.225534
1.457648
2.755085
-0.779289
1.852223
1.992445
-5.657971
0.637597
-4.614317
-2.959580
0.724829
40.237138
74.746429
95.380895
104.085620
107.627502
101.244695
107.997773
101.486029
107.113952
81.195654
66.666129
54.650607
42.605587
39.999744
35.183743
23.017383
8.239482
10.604301
3.319654
3.287044
5.594509
-1.424067
7.616731
-5.789546
0.817456
0.795873
4.807342
2.683767
-3.024583
4.239457
0.641195
3.755912
5.005964
4.574829
0.473027
4.965917
2.389614
2.057880
2.443102
2.679526
0.182556
0.837771
0.982838
0.732075
-0.072148
-0.052859
-1.329258
-1.201055
-1.582847
-1.327557
-2.282800
-3.370325
-0.328800
-5.215754
-1.465168
-6.291820
-1.747805
-0.516046
-3.467331
-5.361001
-0.648641
-0.683582
-6.307528
1.206056
33.547675
74.331417
83.135999
94.153166
103.678564
99.768264
109.152277
103.377970
89.858022
75.639405
56.195832
48.927116
36.389131
23.966093
11.530395
13.947389
8.948932
6.427154
-3.378657
-3.333175
-0.911144
-5.607106
-10.121280
-5.383046
-5.231805
-11.469596
-4.890113
-8.637101
-2.631454
-7.895011
-5.838242
-3.814624
-0.568905
-0.526797
0.776362
1.866599
-3.483855
1.417091
-1.758872
-1.467594
0.307340
-2.000216
-0.337866
0.179041
-0.018556
0.286754
-0.382375
0.131297
-0.285106
-0.347975
-3.087091
-0.470790
1.200032
-1.548617
-1.713038
-4.247752
0.481121
1.858745
-0.888945
5.285404
2.325062
4.183231
6.235500
14.083733
42.312474
70.475001
55.945358
41.970334
45.242715
44.213023
52.219342
51.148612
53.963511
52.006979
44.709735
37.666751
42.441403
30.261437
25.324063
22.840156
5.780055
8.191578
5.701339
3.283783
5.566396
3.185955
9.942179
-3.586674
7.265435
4.953530
2.768552
-1.195982
4.396890
4.211344
5.636700
3.722176
3.452290
-2.191007
0.464934
2.659500
2.378369
3.734783
4.550747
0.808717
1.540911
1.165663
0.517281
0.393135
-0.123682
-0.772236
-1.144055
-1.649088
-0.669234
-1.389173
-2.314616
1.283763
-4.760009
-1.348214
-0.414808
-5.163708
-1.783541
-3.248872
-9.337527
-11.703940
-7.493046
-6.084816
-13.857188
1.211883
35.856289
62.158782
87.536911
96.465063
101.720688
103.715212
92.312759
96.007864
97.965306
68.293386
51.372568
31.499992
28.921668
14.053151
16.475999
14.013491
1.533789
-3.401398
1.513397
-13.039386
-8.089226
-19.697683
-14.696847
-16.739760
-7.413135
-15.663137
-13.120577
-8.616487
-8.358817
-11.529294
-7.482739
-6.998319
-9.502660
-3.260075
-7.941402
-0.432726
-0.386139
1.382807
-0.275045
2.179759
-1.142707
-0.135283
-0.083320
-0.034045
-0.016083
0.463072
-0.156443
0.137592
0.642408
1.400033
0.258996
-1.269484
0.332738
2.344633
-1.735981
0.447847
-3.358679
4.590797
2.008749
-0.970822
-1.046850
-2.879281
-6.683585
4.559946
42.615428
77.419017
94.117739
94.558126
103.287931
111.626400
122.587311
106.065871
102.687048
78.686972
64.418152
47.508404
35.319587
22.995230
10.728449
22.884463
15.520758
12.986886
10.531882
-1.473778
10.262894
5.487679
0.857924
7.465035
-1.324645
4.959153
-11.213247
-33.911037
-49.347254
-46.581293
-37.551712
-28.932457
-24.058572
-11.520661
-8.003322
-6.250224
1.346775
0.313853
-0.431314
1.360675
0.172664
-0.209078
0.662672
0.351752
-0.270218
-1.434563
-1.185282
-0.907444
-3.629263
-5.067372
-4.458594
-5.119127
-3.926892
-3.372499
-5.861394
-7.641160
-5.679048
-8.812104
-6.482979
-11.929684
-5.854150
-7.925931
-8.245442
1.213339
31.712712
64.185438
76.929245
88.178096
106.390086
97.231689
102.174735
96.101076
90.116482
63.227263
51.372568
36.389131
41.641345
33.932224
19.036958
9.017050
6.476451
-0.937126
-8.280122
-8.168766
-17.660100
-15.027114
-10.110974
-0.855598
-5.226203
-5.030151
-8.956612
-14.621243
-8.235135
-4.296354
-2.352065
-5.408725
-6.482979
-3.243271
-5.472912
-1.569126
-5.418308
2.255358
-1.736466
-0.224874
-0.652990
0.221402
0.783351
0.528811
0.007194
-0.221777
-0.637097
0.137592
0.180758
0.221226
0.935895
1.844220
-0.543894
-1.563912
-2.795806
-0.722268
-5.934197
-6.261450
2.008749
-4.131855
-4.434940
-4.639059
-1.137499
10.369177
50.587915
79.308920
96.452590
85.560128
107.970264
108.871483
113.225960
96.601507
90.395751
86.060685
64.355852
47.554173
42.523495
35.115820
22.995230
18.040426
17.935843
12.948764
3.316393
5.645113
3.225086
7.784394
-1.394825
-5.752433
-3.464314
-1.273473
2.762030
4.576814
0.699649
5.940092
7.283344
-0.960587
-0.896256
3.154291
0.463135
2.625764
1.330470
1.979163
0.266190
0.789152
1.934638
0.123203
0.638720
0.157433
-0.364663
-0.835533
-1.195589
-1.304457
-1.176316
-4.375954
-5.226834
-3.504313
-8.342534
-5.291712
-3.690659
9.070340
33.271162
35.380746
35.174889
34.790461
23.582736
22.890192
27.618594
30.757288
54.234670
83.517520
102.622232
101.853993
99.748980
102.417163
104.469611
96.753556
83.287383
68.553304
46.302047
43.980952
33.964266
16.569435
11.508660
21.413648
18.821851
1.517766
-0.929958
-3.342921
-8.065364
-7.938100
-0.880683
-7.611985
-5.203797
-2.917341
-13.015492
-10.570764
-10.115019
1.109921
-2.335822
-8.557888
0.922021
-1.881002
-2.940790
-1.569126
-0.381659
0.527285
-1.680451
-0.808929
-1.120301
-0.131699
0.136919
-0.224060
0.009892
0.331735
0.365227
2.335648
1.130147
0.811978
0.952199
-1.277131
-0.545356
-2.560761
-1.755100
0.449646
3.058706
-4.940041
-0.905028
-5.717799
-6.110951
4.233834
-2.986346
4.576814
38.858030
78.855727
96.023912
102.717391
110.435270
106.792930
106.955206
108.348410
92.542180
69.033681
69.234750
54.809168
42.400357
30.202961
25.373093
30.261437
15.535827
3.326176
-1.485474
5.622622
7.912138
3.156606
-1.386053
3.032690
2.941383
-3.341954
-7.170752
0.728426
0.699649
4.155118
2.272887
2.119622
-3.742174
0.501805
1.656566
1.493518
3.249486
-2.121596
0.929373
1.310071
1.017695
1.344936
0.234789
0.019784
-0.486217
0.112157
-0.994251
-1.399905
-3.785547
-2.669462
-1.708459
-6.042984
0.565157
-4.390698
-4.833891
-7.746244
-9.672247
-4.724680
-6.575740
-5.504173
-9.380762
-4.318760
-12.069730
1.219166
44.200162
69.145287
92.348313
92.923337
95.273347
107.649689
97.380036
104.180127
85.439084
61.280779
51.178526
31.589059
28.949004
16.507144
53.813315
71.169859
80.886940
63.227263
55.397596
25.783144
20.582247
8.531713
-5.455865
8.105979
-3.008304
-2.901097
-13.000480
-6.625688
-4.458797
-4.251542
1.037092
-3.775414
-10.783601
-1.864759
-5.359537
-2.666316
-6.320095
0.515633
-1.646842
0.940918
1.634819
-0.129012
-0.282638
-0.207256
0.055436
0.059353
0.378271
0.147484
0.678279
0.818500
-0.428390
1.894824
3.017950
0.375904
-1.747452
2.822556
0.491013
3.266743
-0.916725
8.552030
2.357672
-2.913695
0.703246
18.099328
53.141861
81.654122
91.894517
103.500639
113.504330
111.969163
114.139994
101.986454
90.572306
74.113951
57.203000
45.230625
37.557782
35.251665
27.817114
17.935843
27.628979
12.974179
-1.484012
3.270740
0.888500
3.156606
-3.632559
0.833643
7.185595
-1.272011
0.755405
2.660941
-2.948109
0.662778
7.190234
0.582741
-0.877249
6.989029
4.007965
1.473952
-1.518027
1.906069
1.613693
1.281958
0.583711
0.114210
1.024671
0.175876
-0.094213
-0.066298
-0.406089
-2.627118
-0.711467
-1.467594
-3.184802
-3.638301
-4.019653
-5.481606
-8.248326
-0.465875
-4.478106
-1.936231
-3.596166
-3.881842
1.089529
-13.457795
-8.307283
5.200880
44.200162
77.796542
88.301426
90.690534
100.159470
105.184861
109.688915
99.386886
82.812811
71.035195
41.445846
53.965905
16.585008
23.943462
21.474483
9.000021
16.335844
-3.401398
-5.803158
-0.920103
-10.420178
-5.584700
-5.461467
-7.556307
-0.828720
-11.317681
-10.925233
-6.609780
3.028461
-6.005276
-2.326076
-2.166889
-4.907623
-1.855013
-6.582991
0.691880
0.600115
-3.627995
-3.721922
-1.349963
-0.168432
-1.747025
-0.269643
0.178703
-0.655955
-4.109138
-7.907536
-10.813725
-11.976779
-9.221399
-7.372890
-6.081686
-4.976293
-7.575117
-3.948614
-4.316126
-0.799758
0.523387
-3.890624
-0.992753
4.065156
4.261948
-1.156506
10.394592
51.427051
85.508036
96.559760
99.346168
111.018350
109.654731
116.382681
99.189321
73.396488
66.860114
52.208948
49.815117
42.523495
27.843990
15.581033
20.444862
13.037716
5.740697
8.087786
3.270740
3.215303
0.873212
-3.628735
7.401163
-7.709199
0.778786
2.739204
-5.010184
0.691555
7.593714
0.618712
2.106578
0.541373
3.103687
4.015949
-0.662323
3.153678
-0.489797
0.250902
1.287580
1.831182
0.391315
-0.572635
0.095585
-0.270436
-0.464925
-1.381112
-2.240749
-2.823090
-3.342134
-1.714060
-1.966128
-4.949903
-0.387931
-4.936959
-4.104268
-3.148045
-7.532461
2.449435
-3.921053
-7.627034
-2.540490
-6.434792
13.127851
50.623252
84.076790
92.949930
93.412922
103.085362
107.971672
106.969434
103.979588
85.520532
68.293386
56.302264
39.098871
33.772016
24.033985
14.013491
26.357768
4.015092
3.961760
-5.819963
-8.160812
-12.773534
-5.562294
-10.038826
12.546040
-9.533793
-2.897848
3.279880
-6.562056
-8.204215
-0.673727
-5.631437
-5.257599
-3.433722
-3.164850
-1.673085
-5.924692
-3.269097
0.502523
0.429694
0.345212
0.278209
0.199553
-0.263145
-0.019710
0.021583
0.066548
0.107915
-1.020593
0.192448
0.838066
-0.443011
-2.109225
-1.456847
-1.617445
-3.982801
-4.367407
0.495509
3.294857
0.568352
0.616014
4.070778
0.687059
4.453117
22.173062
53.204160
88.174745
90.476697
108.452800
117.762987
83.939380
53.170707
36.831326
25.078912
3.368568
3.371829
-3.942283
-1.516178
3.368568
5.796923
3.368568
-1.497171
5.740697
0.909183
-6.197783
0.884003
-5.981293
-5.851400
-7.897229
-7.666465
-3.319012
0.752707
-1.175513
-4.787509
2.380498
-2.646033
0.579144
4.758461
1.764178
0.446048
3.576829
1.261990
1.849843
-1.750472
0.730454
1.381231
1.537586
0.510976
0.103792
-0.120202
-0.668137
-1.683727
-2.717190
-1.789652
-2.803450
-3.205416
-3.638301
-5.914768
-6.545276
-2.671918
-5.359537
-8.451813
-10.384208
-8.203420
-3.932256
-5.917782
1.136140
-8.358817
5.194718
50.681173
88.419149
88.874812
96.058289
95.665015
105.079886
112.312833
84.787499
80.810197
61.222857
61.222857
33.996308
26.457703
36.492314
16.429280
16.507144
11.334780
16.226834
1.501744
3.900810
-12.748215
-10.203735
-7.715387
-9.760542
-5.147782
5.472016
-8.832930
-6.570010
-6.283666
-9.494699
-3.943459
-5.241691
5.176928
-4.438336
-0.462291
-2.582293
-5.063839
-1.114307
-2.266892
1.992436
0.266556
-0.115573
0.112157
-0.019710
-0.036552
-0.476277
0.394576
-1.045335
-0.314347
-2.230711
-0.445935
-0.497108
1.255468
-1.628916
1.532650
-3.179302
-3.408162
-0.864090
-5.427208
-4.286490
2.373976
-1.119954
-4.917402
16.347973
63.584402
92.231192
99.782932
106.142196
112.184509
103.131242
111.556905
101.886369
88.149237
71.604966
57.313430
35.251665
42.605587
32.705761
27.870866
20.385487
22.840156
3.326176
0.908284
-6.197783
-10.733914
0.871413
-8.085258
3.009863
7.137691
2.804423
4.706135
0.723929
2.501154
5.836300
3.879609
5.141692
4.742493
-13.617276
-22.887846
-30.008087
-26.859820
-18.350975
-14.422421
-5.517128
-3.040843
-1.526063
-0.504260
0.039358
-0.038524
-0.927612
-0.767406
-0.581519
-2.886388
-2.813757
-1.758872
-2.005339
-2.212594
-3.459993
-6.038628
-7.821305
-0.507983
-7.583099
-5.154197
-5.615529
-12.902118
-9.887146
-10.279594
5.200880
52.980709
75.672232
84.862320
98.620134
100.159470
103.238142
102.976892
96.473922
78.035144
65.945851
46.345852
33.932224
28.921668
19.019033
9.008535
8.982991
1.527963
-5.814361
-3.352668
-12.950769
-3.274699
-12.533002
-0.867244
-7.540399
-11.596192
-7.063159
-0.766006
-0.736441
-6.251850
-4.195527
-12.294347
-5.225783
-4.867853
-4.430382
3.136550
2.822279
-3.165695
0.498154
1.074247
-0.210540
-0.163952
0.184987
0.109244
-0.303830
0.215568
0.244572
-0.766991
-1.854436
0.697845
0.234715
-0.444473
-0.502956
-1.464495
1.395689
0.422667
0.463135
0.497308
-3.643208
2.077229
0.620511
-6.239152
-4.725655
-8.683126
26.101409
67.479107
90.152926
103.742857
112.481207
105.149962
100.807363
118.739331
99.482492
80.565009
68.966658
47.416866
44.839958
32.610962
25.324063
25.397608
20.464654
15.430346
8.143674
10.469808
-1.460619
-1.435764
5.425830
5.324623
-1.350963
-9.773971
6.898171
6.666635
4.486852
13.299367
-1.060009
-0.998601
-2.424255
3.294857
-2.053352
0.439753
4.552090
3.033918
1.793616
1.478750
2.744782
1.269455
1.075949
-0.195011
-0.001462
-0.389746
0.139833
-1.129469
-1.495353
-2.432405
-3.544687
-4.878933
-4.595434
-3.229327
-7.692649
-8.508799
-8.016462
4.844855
25.368843
33.468017
39.453667
34.756715
28.772947
24.344952
43.182897
67.533688
95.422194
97.731642
107.439651
103.610237
103.853877
95.821441
92.223481
78.258314
66.071105
46.521073
31.499992
29.003676
16.522717
18.965256
4.026520
6.470289
1.522136
-15.567549
-10.533552
-12.811513
-5.551091
-5.433459
-3.079776
-9.482259
-0.793779
-4.811692
-0.733753
-4.397181
-9.482039
-5.575759
-5.233737
-1.971966
2.118018
-5.225549
0.671488
-2.212594
-3.483699
-0.925882
-0.207852
-0.584768
-1.010159
-0.062714
0.064760
0.163056
0.244572
-0.185684
1.381231
-1.360791
-0.388914
1.001114
1.134813
3.105774
-0.622847
3.736509
4.087805
3.109310
1.917443
-6.981408
-1.002988
-1.067319
2.488110
4.481230
24.355340
65.457772
86.387547
99.563870
102.302150
114.456149
109.878516
119.215240
106.589911
88.406983
69.234750
54.756314
47.325327
25.446638
32.579362
30.173723
13.063130
15.445415
5.729452
0.907385
-1.460619
-1.434302
0.867816
-3.609617
2.993558
2.898990
-3.284598
2.700072
8.245491
2.501154
0.647490
5.437100
5.069836
4.662653
4.263453
3.856269
5.476857
-1.445376
4.852121
2.099791
3.239770
0.528275
0.595998
0.673488
0.006522
-0.373838
-0.958533
-1.137423
-1.968599
-3.557868
-4.203388
-6.388438
-7.137699
-5.114478
-6.665373
-3.841786
-7.971426
-7.228631
-1.975215
-3.685790
-10.703628
-4.223534
-8.090840
-6.498424
19.281502
61.461935
85.195328
89.448197
105.622323
94.321977
105.709735
103.478240
84.950395
73.099285
58.791521
41.328546
34.060391
33.900183
24.033985
8.991506
8.957447
16.257980
-8.264214
-8.208536
-15.402416
-19.875139
-5.523083
24.109238
47.964042
54.909472
44.861384
47.399969
39.875591
23.216771
13.264924
7.596368
4.023904
3.697308
2.095162
1.897074
-0.403161
-1.273494
2.021195
-1.534812
-0.730960
-1.376043
-0.922665
-0.517010
-0.032487
-0.055559
-1.114690
-0.198843
-1.974429
0.733715
-0.391838
1.007636
0.318349
1.284817
-0.636005
-0.700337
0.466732
1.835919
-5.093883
-8.625575
-4.311232
0.659180
0.691555
6.387195
24.296864
66.145996
78.743174
101.934143
107.056230
112.067893
121.968808
115.282536
107.218760
73.826966
56.706062
49.766986
49.863247
25.422123
25.348578
27.763361
30.261437
15.445415
22.552162
5.701339
-1.454771
7.840282
5.397717
-1.372894
-5.684394
-1.298328
0.774290
0.750009
0.716735
-4.707098
-1.051236
-0.983981
2.060925
0.525186
-5.803295
3.872237
5.502272
1.222859
1.771126
0.234715
0.684801
-0.228085
-0.386198
0.159787
0.031037
-0.162435
-0.571353
-1.546020
-2.493941
-3.038304
-0.254439
1.234241
-5.494429
0.591375
-0.396890
-5.060640
-4.231532
-4.557646
-6.297457
-6.812797
-2.332573
-11.334137
-4.419587
-12.369972
29.235124
61.949728
88.712901
105.198991
101.195814
114.754039
101.372578
93.221350
92.931531
73.308339
58.735953
43.773690
28.921668
29.058349
16.522717
18.983182
6.482614
1.526506
-15.582561
3.935095
-5.713534
-3.258455
-10.193428
-7.659709
-9.729622
-18.001986
-11.153106
-2.758154
-6.466608
4.818825
-7.606420
-7.152921
-2.101915
2.258965
-0.489169
-2.778346
-3.531579
-2.150978
-2.616868
-1.518008
-2.288110
-1.328319
-0.632970
-0.618408
-0.039211
0.335328
0.082735
-0.200305
-5.789261
-13.794246
-19.025706
-19.360345
-19.016230
-16.352193
-16.340319
-7.503114
-11.994149
-7.484345
-5.128070
-4.008147
-5.999842
0.666375
-2.955756
4.548701
32.340219
69.744270
90.767605
102.269820
105.179027
113.117436
112.768943
115.168282
106.485103
81.274485
59.592108
52.309933
42.687678
35.319587
32.705761
30.173723
30.027532
3.349002
8.127706
5.667603
-6.166856
-6.080260
-5.925625
-3.601969
7.297371
0.792276
6.826315
4.638663
2.589200
-1.105333
7.386801
2.191363
