468.471344
509.794771
174.365291
-24.935580
14.154021
25.732207
6.431886
3.353782
0.528608
-1.573656
0.342921
-1.028715
0.496685
-0.211717
-0.237402
0.052058
0.059860
-0.429580
1.300287
1.173132
-0.976318
0.982603
1.106242
6.377864
26.328394
65.979294
86.965577
75.172857
81.721242
90.388118
109.651737
101.529950
103.896855
105.823302
129.928730
117.585505
126.785087
138.503184
122.601778
136.276261
130.396503
133.155387
118.980718
97.323892
93.181789
70.490498
62.407864
64.513989
61.527108
56.627032
44.497529
41.410645
44.171584
34.440575
28.723082
21.720581
20.771492
14.449524
17.788641
22.921335
19.870731
18.391736
22.747030
19.792147
18.307146
15.702680
9.986632
7.443922
3.662309
-0.357180
-4.006824
-7.715085
-12.979101
-11.660715
-15.501605
-20.535102
-19.699630
-25.431184
-19.623319
-22.583994
-24.823792
-24.647506
-24.465735
-26.329327
-20.997461
-18.831806
-18.113047
-19.532352
-14.678029
-10.567649
-12.986694
-5.381123
49.086628
101.836105
143.071186
147.697866
150.486149
149.017076
142.508433
139.904083
129.363041
137.500138
133.702263
135.246892
134.980395
127.801985
122.384587
90.417828
85.644948
63.209834
69.051267
46.432642
46.432642
41.019186
41.019186
31.097421
18.666844
20.826933
-12.807996
-0.862166
3.757861
-3.069890
-5.121332
-0.773212
-2.765146
-2.675327
-0.691101
-9.577605
-2.306427
-0.576488
2.417968
-4.542301
-4.194111
3.008344
-1.376157
0.555562
-3.924421
-2.638341
-0.673644
0.608342
0.889779
0.556312
0.012406
0.520629
-0.355380
0.475033
-1.214237
-0.364528
3.558117
-1.288740
2.081182
-2.560592
-2.799665
1.633333
0.467605
5.987231
3.547597
8.664911
59.533317
98.722687
113.795886
119.927671
134.767145
129.738604
119.827384
122.205436
124.668203
121.706229
122.813792
109.441865
98.727350
84.543871
68.170653
70.932797
53.528698
43.423543
35.715336
40.649251
18.116217
10.641653
10.579177
19.838159
-3.827166
-33.390286
-58.922690
-57.397183
-59.725043
-49.265986
-43.213954
-34.021165
-25.217350
-15.476063
-3.938405
-2.245531
5.497840
0.406010
7.186744
7.999264
3.030060
2.363655
3.352928
2.819268
1.409634
0.178755
-1.097195
-3.112580
-3.608552
-5.497520
-3.428476
-5.815816
-3.090042
-5.959461
-10.159263
-8.205230
-8.834887
-9.779374
-7.934901
-8.488847
-10.515677
-9.506909
-5.420691
-12.594558
-9.703792
-10.107591
28.374561
69.836080
90.856753
110.429662
115.664019
109.277482
108.184997
109.940534
112.354398
96.702740
92.443175
70.808834
53.703549
38.994909
38.884546
31.454179
23.873357
-0.898944
6.500504
13.791299
-0.883549
-8.142906
-8.000464
1.486990
-0.829663
-3.047435
1.379172
-4.943393
-12.815613
-0.709063
-6.283253
-7.750770
-8.984525
1.000311
0.934423
4.825339
3.231644
-0.407989
-6.228148
-2.833003
-0.955932
-1.954614
-0.651189
-0.125732
0.361925
-0.035068
0.045120
0.191965
-0.159481
-2.071347
0.170038
-1.547680
-1.811918
-2.933093
-1.452761
-0.639442
0.400804
-0.768546
-0.838413
-5.119895
0.553492
-4.366219
-4.611583
-4.844364
19.635956
50.175261
92.662944
102.022464
106.958892
112.611043
110.331985
118.379806
110.526576
107.770261
94.567895
70.052906
60.464182
50.488752
38.128339
35.646784
35.543957
25.769102
13.195751
10.652065
8.130810
5.662619
-1.502157
-6.083766
-1.429252
-1.389761
2.892497
6.838549
-3.186701
-3.065638
-4.699662
2.277557
3.699879
1.978221
3.152793
8.838465
6.833425
3.202560
5.087106
6.751406
2.238704
3.273097
0.592206
1.036718
0.000000
-0.160391
2.221832
5.675365
9.321856
10.216058
13.998555
11.019247
10.643286
6.136168
-2.396628
-0.403712
-5.235619
-3.091706
-4.692656
-6.426466
-8.492396
-9.110713
-6.030024
-11.887380
3.168770
49.441528
80.173452
90.780998
93.389071
98.043163
104.577005
108.012800
109.515961
93.899293
85.074525
63.330463
63.632037
48.693260
36.363515
31.454179
16.488025
18.864472
11.420749
-8.190387
-8.198300
-3.288022
-12.795377
1.478005
-3.118007
-16.353869
-5.076848
-2.842134
-4.776574
-2.646457
-2.537391
-5.942976
-3.931359
-3.670010
-3.419782
-1.815630
-4.099150
-5.943415
-0.354104
-3.603338
-3.048978
-2.504885
-0.625526
-1.179099
-1.123066
-0.125105
0.101521
0.054655
0.097165
-0.235424
0.653984
0.216885
-1.837084
0.290627
1.223373
1.353519
1.509695
-0.773102
1.789509
1.900133
-2.495468
-7.645154
7.632418
0.665405
8.257173
36.415075
86.939274
108.105553
113.209285
105.338014
108.841746
111.893384
110.969125
103.316207
86.835175
67.844165
60.057211
47.824447
33.069254
30.535544
18.291932
10.808254
8.283313
5.752860
0.879687
-3.897461
-3.838882
-3.776397
-12.683638
-8.026954
-7.757943
0.746954
-1.254582
-1.202941
-2.936764
2.310093
6.955601
0.536141
4.559033
4.157709
3.724280
7.380030
3.696465
4.464505
1.926352
1.476870
1.043441
0.985522
0.364449
-0.340705
-1.574145
-1.871439
-2.910434
-2.738261
-2.617810
-1.668186
-1.084245
-7.477188
-5.249386
-7.951722
-3.940882
0.816122
-7.369330
-0.526879
-9.971026
-5.666007
-14.934698
-4.387330
-12.276639
31.232715
67.339057
86.331229
95.065936
102.107528
100.301749
102.765661
109.623329
93.990192
77.557013
78.226891
98.288030
113.595967
98.754292
86.296860
90.676411
63.390778
48.462267
33.365645
25.875082
23.215876
3.884920
-5.493894
1.451051
-3.037811
3.534546
-2.845342
-12.815613
-8.459118
-13.633999
-5.950890
-7.247740
2.537326
-0.526024
-0.479836
-5.256151
-1.501263
-3.252414
0.521120
0.441754
-0.207843
0.735401
0.874591
-0.269457
-0.025660
0.128423
0.058993
-0.437390
-1.379768
-0.804486
-2.754911
2.351754
-1.319982
-1.487908
0.362633
-1.827667
-0.780696
-2.167426
-2.308015
-5.562462
-4.372510
-2.874280
0.661934
4.495127
30.502671
77.034622
100.138927
96.125144
103.667069
106.986185
113.332646
105.864696
93.011598
89.117238
62.643419
55.287299
30.653556
30.683059
25.744371
18.221646
25.472336
10.724953
0.884893
8.162916
3.256906
-8.573655
0.838913
-5.926482
-1.403431
-3.495218
0.743483
-5.202973
-1.204460
-1.139149
4.021362
2.179947
2.014011
-3.598670
-0.779178
3.788492
2.357545
0.306242
0.969588
0.214283
1.517002
1.436936
0.674223
0.100863
-0.174095
-0.708349
0.176702
-2.031613
-0.673644
-4.400300
-3.760377
-3.469881
-3.901050
-2.318779
-5.779372
-6.347214
-3.019418
-4.629349
-6.344339
-6.857635
-3.986966
-11.348405
-0.670573
1.221937
27.269998
63.500823
96.953836
93.489381
95.696212
107.636391
105.015793
100.210727
101.386219
82.855615
63.209834
48.693260
46.388797
28.964922
21.436501
18.900404
8.983344
13.804560
1.546889
3.973476
-5.688516
-12.719665
-3.156501
5.973268
-3.002525
-7.232863
-9.075073
-4.737650
-2.620794
-4.348406
-5.911322
-2.258310
-3.631086
0.907468
-5.748915
5.541299
13.764920
23.184773
19.129643
13.536172
8.865824
4.804657
0.824969
1.264706
-0.021383
-0.034934
0.058993
-0.761257
-0.652180
0.702789
-1.642051
0.264600
-4.680706
-2.434765
-1.671456
1.532470
-3.271519
-3.529465
3.355835
-0.985743
-4.397676
-1.123960
0.672345
0.699239
36.634179
77.391263
94.325444
94.786113
100.781777
111.486086
116.264787
99.594124
98.727350
84.379867
55.394032
50.537346
40.766395
42.967761
25.571258
20.716307
23.171053
8.235154
3.318725
-3.952135
-8.695144
-1.499120
-6.102640
-8.183155
-1.400393
0.776450
-1.304705
-3.249186
-4.989066
0.656729
-1.084469
2.166932
2.023772
1.864343
0.452857
-4.061205
0.363500
-0.539197
-3.981290
1.958458
1.533055
0.121456
0.706329
0.107371
-0.100091
-0.858073
-1.221645
-1.289887
-1.653904
-3.179916
-2.334458
-5.090314
-2.959618
-2.324340
-3.608518
-2.802553
-6.889819
-7.381949
-3.447585
1.004804
-7.411994
-4.220512
-9.981404
-4.565270
29.201004
69.639868
80.489316
99.852788
102.429633
110.056557
101.012668
92.899397
89.555885
72.793238
68.401067
56.239004
53.856260
21.578734
23.964044
14.003473
21.416182
1.563361
6.432273
-5.738561
-3.284814
-0.863021
-7.786802
-3.095552
-0.808280
-0.778344
-0.754395
-4.732089
-6.457348
-2.511728
-4.125981
-3.903556
-5.167461
0.902976
6.021254
0.757721
2.847072
0.597491
-0.286533
-4.236938
-2.391959
-0.157379
-0.111192
0.284920
-0.111212
0.023424
-0.281180
-1.050012
0.549867
-0.318962
0.223826
0.266335
1.112749
1.255910
0.373043
-1.835478
-0.791329
5.799805
4.783774
-4.108272
0.606412
4.190564
-4.863238
2.615937
16.644894
21.416547
24.133979
37.954165
39.280075
56.161923
69.509516
61.190818
54.486808
40.297816
40.336864
33.101143
38.091678
25.694910
25.719641
25.645450
18.151360
13.170153
8.186995
-3.944324
5.656979
-1.496082
7.769619
0.817224
3.003121
0.775582
-15.616959
-1.260658
-3.100786
-1.148262
0.617690
-4.190060
0.539611
-3.579796
1.688646
-1.851099
-6.683093
1.177822
-1.179392
-0.960697
-1.207945
0.462019
0.468125
0.203042
0.020965
-0.355880
-1.992262
-3.187643
-2.612074
-3.179916
-2.342371
-2.682648
-2.096354
-6.243120
-3.624345
-2.785871
-3.002736
-3.252964
-4.866751
-8.479777
-7.370931
-9.552368
-11.812522
-2.624002
33.073676
61.428010
93.218002
95.784577
91.876313
110.056557
108.012800
110.589646
96.889245
78.226891
53.652645
48.831856
38.921334
26.425616
38.884546
16.456798
21.253631
18.702776
3.981177
3.961925
-5.671834
-10.306984
1.469020
-5.382682
-5.204742
1.356710
-2.826095
-2.720237
1.215948
-9.829979
-2.370584
-2.229439
-3.603283
-1.931111
-6.915056
-0.428517
-5.728897
-2.163082
-0.281401
-0.885360
-0.731384
-0.978669
-0.384939
-0.205301
-0.008553
-0.286367
0.070271
0.716287
-1.138740
-1.415561
3.366132
0.272408
-0.533122
-2.478804
-4.845988
-3.026155
-0.801961
-3.573505
-5.232707
0.566505
-1.075356
-4.680788
8.090572
6.485384
34.763695
67.575376
92.302634
103.190565
99.618679
102.688755
111.554313
109.441865
103.215115
72.382390
65.490511
62.946045
40.805444
43.133500
28.065920
25.546528
25.571258
15.640951
8.203048
8.162916
0.873615
3.214609
5.453937
-28.435750
-60.211330
-60.818408
-56.452244
-46.533175
-46.502858
-42.528502
-29.881061
-18.410286
-8.271938
-4.937662
-0.783734
4.914736
-1.628498
-0.540716
0.972842
1.376174
0.165701
0.783968
1.087914
0.485932
-0.057741
-0.530199
-1.736695
-1.289887
-1.167731
-3.787792
-4.446539
-0.289954
-1.206143
-7.276086
-1.488431
-6.334595
-4.344466
-4.653089
-6.364871
-6.960294
-9.135950
-7.812365
-6.259513
3.168770
33.269378
70.035549
88.651718
95.989903
96.298075
100.815064
98.643403
103.018878
99.429101
88.117429
58.667947
53.652645
26.450640
31.394719
16.503639
16.456798
18.882438
1.563361
1.555874
-3.320100
-5.682955
-3.214242
-3.140462
-3.066682
-11.811118
-7.193296
-6.900500
-6.694751
4.999433
-2.473234
-2.354544
-5.460258
-2.081879
-10.411732
-6.889819
-3.956708
-1.446730
0.584014
1.270588
0.416297
-1.256700
0.262058
1.551521
-0.530199
-0.061167
-0.054679
-0.534767
0.115383
0.155290
-2.467249
0.878486
2.520310
0.303640
-0.593876
2.464706
-1.882341
-2.065889
1.838314
-3.799995
-0.997894
2.297079
-8.220477
-16.013371
4.528967
44.720808
73.417494
92.095678
103.981730
108.254605
102.371161
123.955420
109.550116
91.300293
84.215863
65.175955
50.294378
38.091678
33.196811
13.310942
23.126364
20.576602
10.672891
-6.392044
0.877952
3.256906
-1.491525
3.139775
-8.191832
0.794668
-5.593039
-5.372840
-1.262177
-3.089070
-2.928954
-9.536267
-1.008526
-2.421268
4.526927
2.921551
2.650828
5.337176
2.873475
2.375834
2.540669
2.406209
0.783968
1.656506
0.425191
-0.363804
-0.218132
-1.676809
-1.652813
-0.177052
-4.938879
-4.491453
-8.289917
-2.096354
14.359456
25.691556
33.888529
33.354044
39.278354
31.763995
24.905239
28.337682
10.131301
6.758897
14.804119
55.722162
91.062079
100.394799
100.819105
108.039227
103.650588
103.894954
100.700515
97.448759
78.152460
63.692351
43.941342
31.424449
16.456798
11.486197
16.488025
21.273950
13.857604
-8.222040
-12.972040
-8.047945
-5.577303
-12.353722
-5.343757
-18.378140
-5.032363
-11.079232
-2.704198
-4.492982
-6.093331
-7.535185
-7.104017
-0.546551
-6.118488
-4.281159
-1.578251
-2.457795
-2.991272
4.296520
-0.227516
-2.725643
-0.143694
-0.878389
-0.047043
0.018608
0.149668
0.541446
-0.535022
0.605179
0.754847
1.556656
-2.038408
0.311448
0.349619
-1.741751
1.597543
-0.812593
-0.874866
-5.302129
-1.005488
-2.784459
-4.724828
0.674948
10.469568
44.987638
81.627999
96.884737
103.868707
107.485463
107.428734
112.345478
111.964860
96.187653
77.612077
65.427599
45.442158
50.683127
28.147270
30.653556
18.221646
13.221349
22.925266
5.741580
3.286189
-8.660433
3.188579
-3.745155
0.812887
0.796403
-3.452260
-7.428187
-1.253063
-1.198384
-2.932859
3.987522
2.157172
0.537008
1.835060
-1.991688
3.740333
-1.620688
2.801237
0.956574
-1.522514
1.037771
1.067520
0.634091
0.094356
-0.166182
-0.593506
-1.262708
-0.140273
-2.649930
-3.217772
-3.760377
-4.340838
-0.325023
-2.357704
-1.488431
-5.235619
-5.646256
-1.876578
-2.004891
-2.171698
-4.064814
-4.237194
-6.259513
-0.707352
37.619648
80.809749
89.239464
92.374111
99.172456
108.843323
101.514221
103.219499
87.614380
68.336047
58.723556
28.910168
23.873357
21.456820
53.805356
76.042416
80.776156
70.269852
67.425766
54.747819
49.522361
41.451747
22.195647
15.004727
16.816329
5.619710
-6.892586
-4.693165
-0.691101
-0.656888
6.194230
-8.605964
-3.536555
-3.247403
-1.700148
-0.421674
-2.457795
-3.829188
-1.016881
-2.089142
0.315967
-0.141128
-1.077922
-0.047043
-0.005561
-0.195264
-1.051070
0.806528
0.166568
0.767862
-1.749004
-2.019534
1.181076
-1.569919
0.386056
2.735429
-0.809555
1.851328
-5.310807
-1.008526
-1.085988
2.450000
2.541103
8.496662
45.201103
80.103493
94.960632
104.433825
91.503397
117.298163
112.797573
109.117112
89.377561
79.623100
67.713570
53.018901
42.926326
33.133032
30.624053
23.215742
23.081676
8.203048
3.295950
5.690820
-1.508233
3.175565
0.827635
-3.670955
2.977092
0.763437
-1.289516
0.713987
0.679285
-4.705954
-1.067762
-1.008526
0.534406
4.518900
0.445917
-1.823762
-0.630329
1.962741
0.254190
0.777623
-0.280990
0.117986
0.068536
0.240794
-0.174095
-0.908548
-0.667275
-2.823814
-1.167731
-2.628076
-3.760377
-2.730129
-2.107476
-3.355289
-2.580128
-6.410307
-1.767512
-1.870163
-4.945886
-3.758980
-9.161187
-0.656033
-8.151141
7.075453
43.930012
74.618946
91.784103
99.134909
92.832362
103.965636
111.147466
95.956721
104.623846
63.451093
56.185748
38.884546
36.397950
31.394719
21.456820
16.472411
8.966233
8.897789
-3.326516
-3.304061
-5.655152
-5.571743
-5.443849
-12.088729
-9.567838
-11.394700
-10.990901
-6.655184
-4.470740
-7.915024
-10.929203
-7.052687
-6.559923
-4.661003
-5.482001
-7.276154
-7.587918
-3.829188
1.193583
-2.057488
-2.145577
-0.139418
1.958312
3.321379
-0.146216
-3.852803
-6.718533
-9.430690
-12.013364
-10.228586
-11.115886
-8.858041
-6.523771
-6.366358
-2.768208
-5.388119
-0.804998
-2.233815
-2.378310
-2.593100
-1.082951
-4.699662
-3.053922
12.436834
51.264711
82.097665
88.341666
97.289656
100.359732
114.380049
105.123643
94.778654
93.377786
72.242250
50.148597
57.592359
40.414961
38.055016
18.239217
23.126364
10.704128
17.993216
3.321979
-6.366878
0.862337
-1.491525
3.120253
-3.639713
-3.545986
-5.536416
-9.415378
-3.190607
-6.812064
2.410956
2.287318
-0.991819
6.351671
-3.498008
0.439844
1.503187
1.320983
4.466845
0.253322
0.774369
-1.570680
0.727568
0.947125
-0.097632
-0.213662
-0.063294
-1.262708
-2.132563
-1.201094
-3.922536
-4.566311
-2.753869
-6.756365
-3.363202
-7.051582
-5.245885
-7.041243
-3.291888
-12.494774
-5.412777
-9.249518
-9.729030
-10.107591
9.053698
54.332742
70.668638
92.185345
92.667984
97.401491
105.015793
102.015773
96.236478
78.078029
70.876207
56.345518
38.884546
41.371450
28.964922
23.941372
13.950430
11.420749
8.923456
-0.885259
-0.880127
-5.660713
-3.201411
1.463030
-9.814220
-13.923505
-2.890251
-10.953045
-4.654240
-8.192204
-7.812365
-7.422260
-10.150684
0.947900
-0.496087
-2.936008
-6.082221
-3.394856
-0.313048
1.910453
-0.212975
-0.173631
-0.856336
0.358075
-0.239107
-0.039053
-0.352317
0.834752
-0.226311
-0.296179
1.974511
0.248117
-1.280929
1.207105
-1.597256
0.392129
0.432036
-3.416220
1.883865
-3.913240
-1.023715
0.623763
0.657597
2.557371
14.268058
61.443098
71.751588
41.632683
38.327077
41.805032
54.414465
55.418010
47.085132
49.954223
52.560083
25.521797
25.620719
28.120153
30.653556
18.239217
18.204074
10.683303
3.331740
3.299204
-6.354296
-1.508233
3.178818
0.829370
-8.079021
2.934794
-1.330526
2.746083
6.549596
4.416166
0.641981
2.280810
2.131142
1.978221
5.841455
4.077445
3.660068
4.165030
1.119256
-0.435914
-0.913834
1.428711
0.733208
0.406084
0.243181
-0.177940
-0.617247
-0.981264
-1.796536
-1.195534
-0.225805
-0.261729
-4.467025
-5.808946
-5.426048
-0.405423
-2.863720
-0.480692
-4.692656
-6.529125
-10.345314
-7.555717
-7.935556
-0.690246
11.006518
54.207407
73.095641
101.162847
94.893728
95.018969
102.765661
97.421397
96.422983
89.986857
68.336047
61.149838
31.454179
51.318760
31.573098
14.029995
16.409957
11.453473
-3.355386
-5.777486
-5.716319
-10.419909
10.918978
-10.029804
-3.063474
3.569198
3.438289
-2.787601
-4.631998
-10.094972
-6.022110
-0.609845
-5.333643
0.934423
0.861047
-0.454177
-3.853834
-2.352143
0.540587
0.455232
2.164558
-0.174486
0.581390
-0.317575
-0.340277
0.029283
-0.089613
-0.410054
-0.574075
0.644223
-0.941170
-0.434395
0.285421
1.190837
-2.573175
-2.812248
2.803109
-2.097131
-4.998406
-0.944734
-2.632153
-2.815701
-12.004228
-3.069543
14.391059
55.437628
86.367551
95.701685
102.339422
107.485463
112.178546
109.973390
114.605951
98.631031
69.985221
47.732033
48.009276
35.578233
32.941696
20.556644
20.696349
20.576602
13.106158
15.337243
10.454226
-8.634400
-3.811545
0.826767
7.432507
7.255925
4.929412
12.786098
4.596648
-1.177120
9.496845
0.606412
-24.290885
-36.950525
-43.301460
-34.645992
-30.955886
-21.498942
-17.399659
-10.522319
-8.470094
-6.529808
-2.027099
-1.140243
-0.028858
0.119358
0.508627
-0.989177
-1.361108
-3.293732
-2.679405
-1.712671
-3.572540
-3.952379
-4.373282
-7.021639
-0.438781
-4.407773
-3.286327
-3.558798
-7.104017
-11.034003
-9.741648
-4.465179
7.152453
44.337243
81.355147
99.638050
99.344940
100.404412
104.385699
104.408269
99.333496
87.530538
65.926233
56.292261
41.449731
36.432385
28.882790
31.364990
16.456798
11.431657
11.366208
1.551381
-3.304061
-8.063772
-7.865936
-7.755149
-12.025636
-7.304084
-7.090422
-8.859489
-10.448296
-2.556638
-11.348405
-2.306427
-3.753420
2.398717
-4.566042
-2.919326
1.844278
-3.339462
-1.148402
-0.981595
0.954866
0.300992
0.585241
0.142260
0.402112
0.080265
-0.234316
-1.398832
0.133601
-1.709524
-0.945076
0.248117
-2.863670
0.317520
0.355692
-6.133339
0.433771
-3.416220
-2.257247
2.023772
0.590796
-1.098139
-4.775159
4.455647
14.443773
51.506811
84.375764
86.976387
103.868707
112.024126
110.311053
105.229508
100.186359
96.187653
74.702635
55.394032
52.713023
38.018354
28.065920
25.571258
18.098645
13.144555
10.600003
-3.952135
0.870145
-13.342703
3.162550
5.369336
-10.211979
2.938048
-11.782468
0.728735
-5.083437
0.670610
2.404449
3.908561
-0.985743
3.367115
1.776494
4.005206
-0.689565
-1.515245
-2.113904
1.545376
0.193462
1.780551
0.106708
0.372244
0.067681
-0.580461
-0.903401
-0.115469
-0.995351
-1.262261
-0.231793
0.470206
-7.842539
-5.009630
-4.455409
-9.405515
-2.908205
12.741526
27.950116
43.657588
45.383978
43.413487
41.593430
27.858033
52.766054
89.830123
113.949638
111.887479
106.694341
106.978065
104.910778
102.216394
101.386219
94.899188
63.330463
61.265762
41.528012
33.975210
33.975210
18.954302
18.972269
4.038931
11.322576
3.988877
1.540899
-0.868153
-10.204325
-7.676014
-0.807425
-9.434381
-0.762093
-6.789712
-2.659288
-6.267426
-0.645769
-5.666007
-2.142828
0.932925
-1.838084
-1.658446
-0.406278
-6.243120
-0.304495
-0.949517
0.947166
-0.628734
-0.455511
-0.074413
0.142460
-0.062484
-0.097207
-0.170113
1.676425
0.666999
-0.382754
-1.163771
-5.321135
-2.352977
-3.609960
2.594427
-1.979973
-2.132278
1.893626
-6.926001
-2.663395
-1.102696
-6.577764
-1.199903
16.445315
63.915829
82.849131
89.230018
109.197019
111.906330
115.322418
102.960898
97.860476
81.526178
50.245784
60.289766
40.493057
32.877917
30.506041
13.246947
20.596560
13.144555
-3.979472
0.877952
-1.526459
0.860602
0.842383
-3.706103
3.003121
-12.145626
-3.393681
-9.271547
-5.096019
-3.010964
-2.866469
2.251527
2.114874
3.384035
8.321593
1.626826
-1.757372
-1.542582
3.425738
1.545376
1.765822
0.546614
0.393692
0.645580
0.009543
-0.031647
-1.072591
-1.375633
-0.984230
-0.189026
0.402820
-0.266005
3.028670
-2.196446
2.673394
-2.657977
-5.328013
-4.463167
-3.314130
2.483423
-5.507738
1.111124
-6.140812
-2.585508
15.073611
58.816472
75.289678
86.538228
99.659988
106.648902
102.765661
104.613595
89.211108
77.854737
58.612337
41.293170
38.958121
16.534866
16.503639
16.488025
11.508013
6.512909
-8.237867
-3.304061
-5.694077
11.028058
46.013745
60.975499
61.378904
55.429234
51.586119
37.619648
28.512301
23.427120
8.235592
9.441736
1.003306
-3.442025
-3.180676
0.780183
-3.703479
-4.250091
-0.301929
0.446247
-1.362352
-1.511463
-0.452304
-0.269457
-0.189061
-0.022783
0.056390
-0.429580
0.891129
-0.788865
0.810159
-1.148150
-4.519303
-0.569574
0.360030
-0.695640
-5.587269
-2.124468
-6.417061
-3.938405
0.583856
4.083403
-1.154337
0.687093
24.162909
53.663214
90.750460
99.794767
96.441766
112.259719
112.986416
104.911914
105.237420
81.207716
76.713963
52.662043
52.865962
28.038803
35.338303
20.616518
20.516728
3.344755
8.186995
0.880555
-8.712500
-3.854503
-1.470261
7.593037
-5.813237
-1.363941
2.830678
-3.264807
4.545888
-1.168007
4.100323
0.599471
-8.688898
1.939177
3.068192
2.791829
2.509826
-4.270665
1.849939
-0.410093
1.229533
0.553121
0.098032
0.593517
0.064212
-0.348190
-0.696381
-0.767366
-2.784701
-1.278943
1.687154
-2.548120
-3.675199
-3.149540
-6.632379
-1.546172
-5.389608
-0.482402
0.901478
-0.555105
-10.524972
-4.159345
-15.347911
-6.425695
7.212342
65.052619
84.393423
97.559672
107.366784
100.609738
111.037745
107.746204
99.237891
68.140987
60.802066
48.785657
31.454179
36.466820
23.941372
28.855413
11.551646
11.442565
1.563361
3.992728
-5.694077
-7.992551
-7.834283
-3.105176
-11.924686
1.377675
-7.019201
-4.759892
3.188022
-4.392891
-7.689174
-8.896194
-3.675571
-4.874665
-7.091718
3.182021
-0.397725
-2.263173
-4.340838
-2.294891
-0.766670
0.283022
-0.745123
-0.066715
0.437182
-1.231123
-5.295862
-8.336905
-11.138652
-14.282076
-13.936500
-15.644204
-12.761110
-11.669815
-6.698929
-6.308193
-8.155907
-3.485426
-6.505573
-0.969036
-5.970319
-2.858659
0.661934
-5.001649
22.317151
64.140357
87.552020
93.751330
96.752201
109.985755
122.455960
121.023822
95.248321
83.969858
64.987221
47.547204
47.778240
40.571154
30.594550
30.447035
10.704128
8.267260
10.589590
3.292696
5.662619
3.221116
7.777645
3.077955
-3.624092
2.908765
-1.310780
4.698169
-8.884311
0.665405
-2.858659
-2.686827
2.088845
-2.304110
-3.397346
-3.107943
4.633596
-0.580206
-1.257497
2.790570
0.680013
2.505589
0.097165
0.820011
0.028200
-0.144352
-0.712208
-1.447495
-0.587032
-1.812172
-1.551413
-0.272848
-1.154817
-2.235370
-7.622566
-2.685780
-5.399874
-8.533761
-6.200616
0.974854
-3.942481
-7.678908
1.172521
-6.433608
13.162315
67.492624
80.046581
97.769704
97.940500
98.404596
103.381639
105.537562
89.642079
85.318992
70.943580
51.367312
41.528012
26.550737
19.044133
19.008201
14.016734
18.774641
3.996578
-5.777486
6.351637
-8.000464
-5.510576
-7.660188
-9.680763
-7.209123
-11.180182
-12.770699
-12.381439
-0.671429
-0.638071
-3.914678
-3.653328
-6.272477
-8.294217
-0.432793
1.778824
-2.240931
-1.868369
-0.245478
0.345916
-0.155669
0.187184
0.477613
0.028452
-0.121063
0.610011
-1.382987
0.553121
1.229533
0.855711
0.262865
-1.366845
-0.586282
0.372175
2.684668
0.449387
-0.850564
0.515320
-0.978149
-1.054092
2.391434
-2.987533
-1.215092
28.414600
66.185254
93.584391
103.190565
121.165558
113.555476
108.535106
120.783457
114.831998
86.413235
40.063527
-6.486415
-28.656734
-38.693776
-41.049380
-33.549431
-38.507210
-30.817960
-40.334788
-32.898618
-27.823690
-15.678345
-15.314101
-5.964230
-10.189851
-1.350271
-3.378060
-5.228138
-5.045688
-8.397499
2.355644
-1.032828
2.046547
-0.893092
-5.874930
-1.905772
-1.706604
0.324461
-0.484518
-0.394905
0.182184
-0.617033
-0.406148
0.156175
-0.003421
0.070381
-0.082966
-0.828533
-1.981323
-1.899220
-2.884724
-2.579774
-1.177272
0.603481
-0.381474
-8.488767
-4.225765
-1.841292
8.089128
-0.565369
-2.280764
1.129094
-2.521351
-0.702220
23.297872
65.573636
84.486675
87.004490
103.181214
110.168631
103.894954
100.798473
92.177533
83.013888
68.401067
51.415863
41.606293
31.573098
23.986716
16.519252
16.519252
6.481896
8.897789
-5.733001
-3.291230
-3.227073
-12.479910
-5.410485
-5.249227
1.365695
-2.829303
-10.814239
1.230922
-6.196205
-5.895496
-2.261518
-0.561092
-3.380858
-1.780344
-2.796993
-2.524522
1.528556
-0.288244
-1.601459
-2.952779
0.268048
-1.005004
0.607445
0.073155
0.025159
-0.650834
-0.186820
0.150085
-0.839633
1.477695
0.263733
-0.524008
-2.403308
1.386056
0.408612
-3.246353
0.482353
1.932670
-2.499374
-6.039741
-2.870375
-1.166488
0.696636
36.458896
66.339712
89.264394
98.508503
105.790108
115.615607
118.019258
103.995681
95.811920
83.887856
69.782170
47.732033
40.493057
38.018354
20.636475
25.595989
15.625766
13.093359
3.321979
0.876217
-3.893556
3.201594
-3.768587
7.576984
-3.604566
0.772980
-7.454220
4.686889
4.500767
0.658464
2.355644
0.586458
3.541957
-3.680458
5.487428
-7.696642
-25.514842
-25.079051
-18.401257
-15.050230
-12.785861
-7.632963
-4.009659
-1.417264
0.053898
1.133588
0.385027
-1.791858
-0.606279
-0.202712
3.076076
-1.036128
1.397647
-3.173280
-2.457795
-0.416542
-6.751013
-5.913170
-6.262211
-6.775507
-10.689659
-13.027659
-0.673139
-2.624002
25.270371
67.722974
91.382861
93.690002
105.441969
112.481429
100.912358
110.482278
103.821362
73.351041
58.834775
49.062848
28.992299
31.573098
24.077403
21.477139
6.531518
11.431657
-0.892957
-3.307269
-5.682955
-3.243112
-14.761910
-9.916879
-3.031396
-0.778344
-4.921150
-0.728735
-4.537467
-4.348406
-4.137102
-5.547305
-6.683114
-1.940735
2.117647
0.760716
3.901338
-0.336997
-0.289954
2.361336
0.342921
-0.155669
-0.683956
-0.221340
0.042353
-0.321078
0.250531
0.111913
-1.100992
1.235173
0.229031
-4.893544
1.928900
-1.515245
-1.683172
-0.718423
0.451122
-3.472843
-2.311921
-4.051650
-6.013707
2.397942
-1.161932
2.606176
30.392686
70.603562
91.474808
96.760332
99.301085
112.613107
113.332646
105.864696
92.736957
86.413235
66.995297
50.148597
37.945030
30.476538
30.476538
18.151360
23.036987
3.331740
-3.959945
-1.540129
-8.651755
0.852794
0.834575
-8.191832
2.960824
-1.351790
-1.303186
-1.260658
0.685358
0.654994
-1.087507
0.581253
5.080753
-0.874866
-0.804998
1.571514
0.368705
0.319255
1.002125
-0.390348
1.150572
0.491302
1.228702
0.037304
-0.087048
-0.605689
-0.346445
-1.210753
-2.083982
-2.515150
-0.914230
-4.252507
-4.643687
-4.250091
-2.541204
-6.284120
-6.851963
-8.743362
-9.267365
-6.867901
-10.779488
-7.791833
-8.120343
10.913692
80.010560
128.915278
158.691446
160.637674
150.974281
153.650338
156.893210
146.653212
137.571038
105.626951
78.971200
61.671495
51.561517
34.039375
26.575761
19.008201
21.416182
11.486197
-8.222040
1.543894
-17.705142
-3.211034
-3.162917
-14.417565
-14.118135
-5.060166
-0.748408
-4.726528
-10.246397
1.172521
-7.565983
5.929007
-0.555960
-1.918280
3.368105
1.917433
-1.430691
2.394270
-1.801641
-0.232648
-0.192448
-0.950866
-0.375316
-0.053885
0.049622
0.242523
0.074609
-0.861919
-1.588035
-1.952502
0.881740
-0.481480
-1.382466
0.343547
-1.714414
-3.026155
-4.581872
-2.194763
1.971713
-2.557953
0.612485
4.173644
-1.164969
8.392536
32.683403
68.548866
87.650726
101.122413
106.242203
105.003570
111.328266
111.411674
93.560879
54.753638
55.127201
45.485978
28.147270
25.571258
35.578233
28.065920
8.259233
5.781061
-1.544685
12.901375
-11.030707
-8.469522
0.834575
-1.427733
9.496269
0.766040
-3.354628
2.681010
8.236348
-1.146743
-2.792269
2.183201
3.530677
4.607191
-0.795885
-4.147983
1.382802
-2.277480
1.703298
0.810159
0.634462
-0.220235
-0.138217
0.511959
0.020965
-0.361440
-1.118985
-0.133430
-1.139927
-1.379034
-3.684665
2.071725
-2.068551
-7.154818
-3.608518
0.751731
-6.877200
-4.613522
-1.985644
-2.155659
-7.391463
-7.822631
1.185998
-2.656080
31.637379
68.260459
92.085034
105.237380
96.799627
117.940662
104.510932
98.664261
95.444586
68.271027
53.754452
49.201444
24.054731
29.019676
19.062099
18.990235
28.800659
4.038931
-3.342555
-5.744122
-12.896327
-10.337782
1.470518
37.770529
58.719468
65.591088
48.880687
44.948598
39.520786
24.767575
28.689946
22.168905
10.023970
2.314011
-0.465296
1.921284
0.663380
0.572034
-0.277980
-2.144536
0.831658
-0.529291
-0.094086
0.496223
0.004492
-0.171832
-0.135179
0.118853
0.608433
-0.894307
2.191225
1.028154
1.161554
1.288446
-1.718319
0.416420
-3.315558
-2.206478
-0.915875
0.564770
-2.761027
2.420717
-4.875821
14.162629
40.478470
81.346199
92.613069
99.158010
97.890462
107.096823
106.843839
101.395456
98.342072
79.391413
60.057211
45.047771
45.354516
20.656433
30.506041
23.081676
15.610580
8.203048
-1.541648
0.872747
-1.511270
-3.827166
3.130014
-5.895025
2.967331
0.764304
-1.297111
0.714855
2.576893
2.440239
0.620292
-1.016121
2.023772
-2.229910
4.173762
1.535724
4.414932
1.184329
3.890891
-0.378197
2.945966
0.484794
-0.139736
0.296979
-0.126615
-0.055596
-1.905642
-1.611749
-2.073716
-1.379034
-3.697284
-3.408286
-1.193311
-2.318779
-2.513401
0.753229
-1.738642
4.962228
-0.530300
-5.325730
-5.753054
-4.231633
-8.110077
1.233917
33.504221
74.786628
95.774404
103.028105
107.815080
99.407700
106.906078
98.281841
82.776479
78.301322
53.754452
43.982835
41.410591
38.994909
16.597321
21.456820
18.936336
6.494301
3.996578
-0.880983
-10.471239
-5.555061
-10.081134
-7.588967
-2.992902
1.353715
-13.115043
-8.654171
-6.417781
1.156049
-4.103739
-3.853511
