201.846391
-12.447198
19.171807
27.624427
12.629748
5.332588
4.071028
0.332336
0.177463
-0.278385
2.138151
6.725337
10.627236
11.351503
14.818540
15.390535
10.838800
14.044347
21.686664
44.125453
73.089613
76.639403
91.301385
109.204245
120.609871
118.265380
106.694071
105.743004
112.271175
114.425334
97.877534
92.303776
91.091863
103.834140
120.700982
113.957377
93.369269
87.732772
74.028481
66.388217
57.330559
49.675451
49.294432
37.714999
24.767468
29.616283
17.512036
10.302645
7.818598
-6.081783
0.761232
-10.216381
-3.508622
0.692173
-5.234322
-1.255448
-8.535481
0.573901
-4.249771
-2.493378
7.326289
-4.603774
-3.053354
-0.674939
-3.309231
1.009562
2.032836
2.103203
1.094604
1.262722
0.390930
-0.076297
-0.664298
-1.208031
-0.830050
-1.030598
-0.185692
-0.902468
-0.994947
-3.782334
0.621932
-6.673179
-0.385917
-0.429515
-1.849581
3.739394
43.279318
99.611133
138.695514
156.078799
142.002929
153.739628
148.832846
148.660857
152.814588
145.129221
144.020396
139.825042
148.477547
144.372197
125.368523
106.079386
81.836229
71.199257
76.605693
48.982054
53.191050
56.563999
43.368524
31.181062
21.144297
20.876126
18.064538
6.249224
1.519404
1.470594
-5.113997
-4.974726
3.402488
3.264014
3.129498
-7.802356
4.556990
4.170375
2.429218
-5.921523
-1.645489
-3.833045
1.649811
0.584144
-0.966247
-3.331622
-0.161472
0.248773
0.608444
-0.040368
-0.031119
0.039689
0.079378
-1.174520
-0.766296
0.192094
-0.445831
-1.987796
-0.565029
-1.594828
2.513983
-4.295141
-7.277790
-4.989565
28.122581
82.729284
113.246988
137.825895
139.437438
130.956393
127.703994
140.656958
133.295358
118.533615
114.106477
110.631772
126.527452
148.520906
161.404144
159.889036
138.129166
135.516153
107.271301
94.446606
75.236239
54.926626
47.052112
17.907303
20.113132
10.353447
-3.920944
-3.827588
-1.495391
-3.683665
-1.411798
-11.731956
-5.271710
-3.185767
-8.502736
-6.344121
-7.640456
-2.536166
-5.152455
-0.849865
-0.772464
1.407744
2.152496
3.332611
-0.425707
-0.346757
0.523593
0.092078
0.860935
0.031274
-0.381714
-0.940416
-2.098579
-2.377914
-1.844951
-0.889712
-4.740675
-0.287420
-1.266006
-2.428870
-3.825093
-1.664623
0.884875
0.939983
-0.519939
4.379527
36.120021
76.106908
108.906795
105.569402
129.791434
130.854099
129.451843
125.641528
127.401150
111.814605
132.969151
115.901230
99.556828
88.078746
53.500600
41.389008
38.979628
36.385817
31.301685
31.361997
23.654745
6.502742
8.911661
-0.814625
6.299928
-5.409249
-3.051808
-5.180846
1.429656
-0.708053
5.393600
1.289525
-4.378651
4.702763
1.111605
5.755085
-0.498140
3.568269
3.251371
2.997853
1.641898
0.565250
1.920400
0.393628
-1.136444
0.234602
0.367943
0.357513
-0.038898
-0.373880
0.084140
-1.328836
-2.664546
-2.108992
-1.139719
-2.863428
-2.324288
-1.594828
-2.866414
-0.784848
-4.706652
-7.768278
0.499286
-1.068137
-7.978819
-6.592742
43.612761
78.686391
98.253251
112.538237
113.247198
109.759951
106.124422
110.631772
112.848842
122.240099
81.738996
64.329835
52.817519
37.894594
42.794885
18.147900
13.239830
18.044787
5.696171
-1.599109
3.232481
-1.582081
-10.980427
-13.137140
-8.298796
-10.303701
-7.895859
-5.508501
-13.289708
-14.728781
-10.393055
-9.942336
-10.918774
-10.216853
-10.710210
-3.408541
-6.628224
13.962374
24.239334
21.766628
19.608312
15.320726
11.011353
6.538884
3.143413
0.431029
-0.873903
-2.430607
-1.097428
-1.013886
-1.253431
-1.531971
-1.760374
-2.005489
-4.144033
-1.399941
-3.809188
-1.671001
-7.222754
5.223175
-0.518324
-0.557885
-4.094540
3.058283
42.692866
74.092076
105.818312
119.838536
121.037721
114.800564
113.549576
116.506597
125.676975
115.674195
94.935948
70.653146
63.502220
43.957427
23.976891
33.676147
31.331841
26.306140
6.553446
8.972700
4.039465
3.984076
-0.798477
1.535149
-9.858871
-2.984841
-0.729045
-0.705631
1.333611
-2.592602
-0.627317
4.696425
1.097434
4.170375
-1.942060
3.568269
2.021711
-2.601565
-4.257709
1.388690
-0.238171
-1.932427
0.743800
-0.113838
-0.070240
0.122648
-0.145743
-0.103718
0.369964
-1.423141
-1.283655
-0.976346
-1.155278
0.267503
-2.361676
0.332592
-2.916265
-0.783300
1.749490
0.468328
-8.497383
-5.949757
-11.558302
-6.618461
17.516927
61.570953
92.686303
114.775183
109.391333
109.528878
115.049506
108.186143
110.790424
100.868992
88.924099
64.761579
55.135870
47.776688
35.491456
27.986255
18.165085
15.615583
8.186072
8.123523
-1.596013
-8.736026
-1.554216
-3.827588
-6.000776
-3.687554
-7.887286
-7.604372
-7.355751
-3.189657
-4.904061
-4.648576
2.204107
3.582015
-8.073177
-3.427235
-1.983811
-1.769870
-0.622306
-2.112423
-0.438091
-0.351402
0.564352
0.385640
-0.109910
-0.026316
-0.098857
-0.258304
0.811258
-0.558063
-0.704754
-2.123285
-1.732520
3.043219
2.446451
2.699969
5.262203
-0.417404
-0.451313
-4.723712
-17.041255
-44.929271
-56.073212
-55.423573
-32.583392
17.018581
52.439755
77.625684
84.070340
88.512106
104.295010
112.041639
104.406439
96.258096
75.291201
75.291201
51.030601
38.793123
38.793123
38.867725
31.482620
28.607113
23.631735
8.885502
4.007814
-8.008043
6.274576
3.833733
10.557712
1.465870
-2.879606
3.453921
1.327313
1.276929
-2.474612
1.166713
-10.583481
4.157699
-1.919737
0.878577
-2.846680
1.819935
-1.307462
3.863390
0.464481
1.521109
1.185198
-0.768771
0.538726
0.118691
0.015876
-0.557254
-0.187311
-2.558113
-0.809084
-0.399390
-1.159168
-0.526328
-3.249219
-8.538537
-0.719831
1.602132
-3.452160
-2.294997
-2.477819
-2.687869
-2.843462
-8.448162
6.254878
47.761293
78.466097
95.871400
113.492322
98.325464
103.834140
104.036024
115.232499
97.673144
78.908491
70.011168
47.912546
40.479977
30.569783
33.047408
13.127310
5.783805
8.193891
-4.033749
3.232481
-1.572793
-13.375756
-10.805788
-8.298796
-16.989227
-14.287996
-1.379290
-9.375931
4.518597
-4.922755
-1.157922
-4.393092
-5.632551
-2.380573
-3.452160
-0.778656
2.503029
-1.571489
-1.330320
2.895714
-0.354498
0.980399
0.388776
-0.116102
-0.030960
-0.098857
-0.795737
-0.103342
-1.756822
-1.214435
-4.667043
-5.366225
1.368908
-2.161471
-3.395665
-6.027439
-5.332471
-5.787178
-3.275632
-3.565313
-2.206741
-2.334299
-7.905698
8.770339
60.466648
86.976968
111.252971
116.177465
119.244857
117.876678
113.813049
128.574840
106.070287
89.762883
82.497674
45.957571
46.224249
46.268696
33.773759
33.676147
28.579339
23.654745
26.001435
11.246017
6.325279
1.555617
-0.781523
8.275114
1.461147
-37.084773
-60.444755
-54.631389
-52.482598
-44.752510
-45.857835
-33.473691
-26.636613
-17.603602
-6.968432
-2.807684
-2.545857
2.535182
-1.866219
-2.282332
-0.739832
0.720061
-0.718634
0.475347
-0.057401
-0.222902
-0.498507
-0.199695
0.920151
-1.860371
-5.374613
-1.182507
-1.357549
-6.052120
-5.700272
-2.972347
-5.697597
-6.123280
-5.126736
-5.512527
-6.001196
-8.109798
-13.957359
8.199442
48.217248
78.914988
98.311581
102.982882
104.062700
92.666687
106.488387
103.922244
100.578582
91.545850
52.767550
52.767550
38.002351
28.012808
18.147900
15.689802
8.232984
20.464623
3.263834
-6.424507
8.021882
-1.557312
-8.487405
-17.348028
-10.292786
-14.287996
-13.898039
-9.343186
-5.134620
-6.729912
-6.412706
-4.380629
2.063019
-0.944295
-0.854509
-4.312288
-2.841489
-5.276066
-1.314761
-1.093041
-0.354498
-0.692389
-0.482338
0.711228
-0.062237
-0.025835
-0.451235
-0.424128
-0.142902
-0.182463
0.423544
-0.255125
0.554228
-1.259628
-2.406587
-2.662843
-9.194249
-1.795369
0.939983
-5.129283
-0.561114
2.896071
-0.618437
5.025999
58.706642
97.624934
111.002118
114.012345
113.060930
111.379165
109.135347
111.469198
101.409726
87.314321
65.849982
58.722067
48.747914
36.106463
28.829304
23.907860
16.420419
16.277632
11.312627
-5.659935
1.576086
10.935169
6.147817
1.503658
-0.741962
-2.860472
-2.764804
-2.685081
1.270631
1.213948
-4.094540
2.737816
5.598128
3.783759
0.862832
3.149964
3.950081
2.503492
2.912422
1.755614
3.074185
2.744669
1.421017
0.766017
0.188729
-0.124474
-1.310253
-1.996576
-3.488428
-2.466776
4.605717
17.215563
20.290000
18.860478
24.047136
19.570337
21.356840
25.767711
13.165031
8.101426
7.152921
-1.157922
0.619940
8.209602
56.008934
80.697071
106.798004
110.216483
108.101215
113.688202
109.705307
111.984052
98.617758
91.720723
65.069968
47.867259
38.110109
38.038271
25.639050
13.252332
8.217347
-1.620781
-1.605301
-4.029859
-6.368425
-8.650295
-6.175253
3.041228
-8.127333
-9.998083
-1.373098
-1.325109
-12.806162
-4.916524
-4.661039
-6.052634
-7.192944
0.482616
-2.174412
-0.780204
-5.042701
-2.486303
-0.526328
2.236119
2.875506
0.567487
0.100810
0.228876
0.050165
-0.310027
-0.434523
-0.404994
-0.138058
-1.220006
-2.091475
-6.077597
0.543206
-4.933853
-6.492007
-2.634989
-7.805506
-3.102937
-4.691902
5.563248
-3.860566
4.633045
-4.256093
20.135877
58.635996
97.284382
109.263559
107.044132
119.117049
97.950698
109.024211
113.971435
103.234345
89.326294
75.802392
43.494718
46.002017
31.181062
26.433100
23.769797
21.288697
8.911661
8.902941
1.591831
1.565064
3.893079
-3.067753
1.491062
8.030959
-7.077615
1.360378
-10.617957
-0.647501
-0.619244
-0.589372
1.084838
2.532084
5.153417
4.691266
-0.398835
2.839404
0.612485
1.317475
3.707899
4.032589
2.319122
-0.097690
0.102343
0.043520
-0.147813
-0.728717
-0.841230
-1.997434
-2.982701
-2.331893
-3.438205
-3.060610
-0.613018
-3.746461
-6.363095
-2.049938
-0.874634
-6.570792
-7.127454
-7.749606
-13.472977
-10.353286
10.176791
52.426040
85.380471
96.296079
97.183352
99.882889
111.610260
111.962014
106.631733
93.728381
74.952061
53.017397
47.867259
35.424301
28.225227
58.205000
85.316315
89.945237
79.741499
61.946976
54.141960
46.418109
45.602962
28.807253
23.411673
22.879039
9.337407
2.784135
-1.325109
0.653278
-3.049623
-4.661039
0.557231
5.129000
-10.799910
-3.414772
-4.295141
1.420285
1.244709
0.266709
0.222257
1.237822
-1.096715
1.500264
0.053977
0.037623
0.215490
-0.068625
-0.105764
0.280263
-1.259001
-0.867390
3.497034
-2.823094
-1.269195
-0.350394
-1.537065
-2.930242
3.561931
-1.913360
-9.783303
1.097434
-2.353432
-6.131282
20.262837
60.831785
97.624934
111.252971
111.847494
117.524277
104.512518
116.979720
114.539021
103.742388
97.391656
60.968721
53.449009
50.932182
46.046464
33.611073
21.350583
18.903901
13.833834
11.312627
8.772144
1.574511
-7.841043
3.825821
-3.010352
5.875285
7.778084
-0.693521
-0.673337
-2.538390
1.204501
-4.049973
-2.168474
4.049953
-1.865526
3.390806
4.263994
2.801376
-0.312448
0.508567
3.721382
1.918362
0.664672
0.462897
0.549349
0.069759
-0.334352
-0.993259
-0.210531
-0.715728
-1.420744
1.500722
-1.229185
-2.249512
-1.548150
-0.684227
-1.906014
-3.315070
-8.891002
-3.794883
0.523099
-9.438591
-1.162566
-4.897830
10.214297
54.480591
87.842262
109.280073
114.717941
104.496746
106.884004
107.125406
101.920819
106.053462
77.495740
60.300057
40.326933
38.110109
25.735893
23.224689
13.302341
5.789282
8.178254
-8.907489
-4.022079
3.216804
-10.980427
-3.843147
-12.792472
-5.894843
-12.142906
-3.450275
-13.367699
-3.212996
-4.897830
-6.378414
-1.083617
-2.555615
-6.625367
-6.035960
-3.146824
3.580918
11.557574
20.114966
20.621499
18.502524
10.916952
7.067303
2.877259
0.690240
-0.812621
-2.068489
-1.033809
-0.958178
-2.294203
-4.684522
-1.726949
-3.637655
-0.314870
-2.423299
-2.646131
0.817171
-1.779424
2.338221
1.017134
-0.562729
-5.837044
3.026632
14.542866
58.847934
91.373592
107.027796
116.688697
106.252254
111.495064
111.587570
114.425504
98.782067
82.577846
70.311826
53.603784
43.410588
45.913125
26.280748
38.569317
23.700766
11.412542
16.150711
8.754704
1.569788
3.865384
-0.777486
1.484764
5.849933
7.778084
7.516489
3.295666
5.057688
4.848536
-2.308787
2.698252
0.990368
3.707704
4.647667
3.124612
1.724982
-0.305989
3.630254
-0.864201
0.878317
1.033087
1.011500
-0.049249
0.099915
-0.175042
-0.342305
-1.183093
0.146849
-2.521351
-2.374759
-3.503695
-2.268206
-4.387805
-3.772180
-6.455890
-4.518043
-2.209421
-6.603537
-5.598258
-4.424248
-2.905699
-10.393055
13.954635
60.103738
83.315002
107.976790
117.284578
113.988598
106.992515
119.175256
107.047047
101.062598
77.128810
65.255001
50.437491
48.093689
25.784314
25.639050
13.264834
18.044787
8.186072
10.587136
-4.010410
-11.111406
-6.287418
-10.773043
-6.044395
-10.292786
-3.539741
-9.648805
-5.321561
-3.181877
-10.340029
-6.369840
-1.086713
-2.528386
0.476266
0.432608
-0.780204
1.435961
0.314336
-3.678334
-0.431899
-1.963248
-1.953774
0.679159
-0.591546
-0.046678
-0.189407
0.133833
0.530155
-0.561252
-2.314871
1.730262
0.488099
0.552654
1.539032
-1.390375
1.887194
2.069187
3.549255
-0.480378
4.094319
6.095158
1.163564
-6.123330
22.108022
76.611745
100.136939
105.743043
68.697802
39.582717
49.837589
46.219204
47.062107
47.951839
28.579339
23.746787
36.141382
36.176302
28.857078
33.676147
16.388688
18.776172
18.630196
4.011771
6.426687
6.306266
1.546170
1.509956
-3.000785
-2.917873
-0.716934
5.444304
-6.600472
3.145323
-4.228239
1.139946
2.674514
0.999815
-0.470690
0.843938
-0.392376
0.684912
-3.013951
-0.255933
2.908644
0.330647
2.170806
0.950461
0.566186
0.017440
-0.286641
-0.840167
-0.221367
-2.062923
-1.495521
-4.429903
-2.777696
-2.293131
-8.193750
-2.797870
-6.548685
-5.850406
-2.236650
-8.073177
-5.666843
-4.461636
-13.598558
-10.446081
16.051451
52.672751
92.303419
103.573416
108.951194
115.771958
107.101027
105.489621
112.092564
93.907938
79.817226
55.083559
58.041042
30.772040
30.598677
15.823395
20.679424
15.689802
0.831878
-4.045418
-4.029859
-3.971512
-3.897605
-10.762128
-6.056858
-5.869918
0.727099
-9.659720
-7.330032
-7.029972
-3.041843
-1.148634
-4.343241
-7.083794
-5.143882
-2.131624
-1.964362
1.407744
0.310367
-1.299202
1.495245
-0.349853
-0.672940
-0.478448
0.051595
-0.018576
0.061406
0.136982
-0.417750
-0.580386
0.882273
-1.520829
-1.749232
-1.988776
0.621932
2.801376
-1.533877
2.085013
2.219530
2.385698
-8.252759
-7.264975
-12.969833
-2.465045
16.502866
68.850483
97.624934
107.993097
108.345221
109.061180
109.998327
121.321925
106.797540
101.409726
79.969243
60.909984
50.981392
53.191050
46.090910
23.907860
28.745983
18.812666
13.847317
13.685518
1.582384
8.711105
-3.131532
3.794170
1.478466
1.440678
7.725765
7.438011
-6.552758
-36.341983
-52.828017
-51.810563
-47.097994
-44.023348
-34.883134
-25.722908
-22.339495
-14.787841
-9.332827
-6.276212
-2.099427
-0.171160
0.255071
0.889422
0.588390
0.012676
-0.274179
-0.369533
0.115891
-1.611750
-1.489289
-2.426198
-4.321602
-5.708959
-2.517460
-1.754311
-6.561942
-3.339996
-6.265174
-3.801115
-4.118913
-4.455405
-11.823472
-8.644630
16.070978
70.836594
90.221558
103.347026
104.423978
104.713770
114.265886
108.293275
102.515688
99.090066
67.156451
72.481461
45.563753
33.422237
35.525034
18.251013
18.216642
3.292051
-1.613041
-1.613041
-11.264215
-6.374656
-8.581710
-15.426668
-6.038164
-5.851224
-9.954423
-3.438606
-11.321006
-5.097232
2.439253
-9.849541
-2.699539
-4.019211
-0.917978
-0.849865
-0.775560
-2.785407
-2.430221
-2.062572
0.219082
-0.352950
-0.263164
-0.466779
0.609624
0.008732
-0.127557
0.344205
-0.757629
-1.013886
0.902055
-0.854634
-1.007703
-1.122504
-3.188903
0.695934
-3.840998
-1.680567
0.888024
2.381741
-0.526398
-2.238631
-2.347054
4.873888
20.313621
61.196921
98.533073
109.878782
108.463502
109.061180
106.245816
114.740243
121.627980
98.588376
85.113727
55.970293
58.214871
53.345825
41.389008
38.755822
33.708685
18.757925
8.911661
-0.821083
13.577652
3.908905
1.546170
-12.220187
1.481615
-0.738733
5.609090
7.446731
1.297397
5.025999
-0.611170
-2.283276
-0.549811
2.492520
6.416780
0.829768
4.229115
4.829237
2.357719
3.485932
1.036572
2.275847
1.014073
0.898142
0.323236
-0.062393
-0.578492
-0.623134
-2.292943
-1.208879
-3.141778
-0.434995
-2.803416
-6.637818
-7.283660
-7.050408
-4.226556
15.544937
34.355651
35.279523
44.528430
39.349859
32.637561
28.340128
50.575709
86.973987
105.383461
123.260160
135.306280
127.311027
119.378561
114.892915
109.779654
84.592614
67.732626
55.502047
45.391976
42.957295
30.627571
23.180952
13.227328
13.202323
0.831084
0.829497
-4.006520
-8.736026
-10.947682
-22.238764
-10.532915
-10.281871
-14.225603
-9.616060
-5.309098
-8.917504
-4.841748
-4.604957
-1.072781
6.543297
-5.109589
4.229862
5.029398
1.398338
0.308779
1.012698
2.111022
0.176218
-1.053096
1.475260
-0.221720
-0.035008
0.070853
-1.373890
-1.097428
-1.479142
0.913924
3.064068
-0.258355
-3.720329
-1.275573
-2.462295
4.246555
-5.456482
-1.801747
2.385698
-3.637734
-0.568380
-11.142095
-4.283947
26.160022
59.342454
100.484636
110.370960
110.406351
115.907965
114.140981
107.992644
109.841460
94.107215
75.364228
65.849982
58.327582
48.466947
31.301685
33.708685
26.280748
16.356958
21.206183
8.859342
8.772144
-0.804129
-5.448245
3.806039
8.170476
-7.244615
-0.715320
3.370837
-6.552758
-2.525635
4.785156
2.812987
1.054923
2.476695
-1.820880
2.073144
-0.385917
-1.355296
1.463861
1.210653
0.404649
-0.644164
-0.874616
1.110170
0.291546
-0.062313
-0.086689
-0.917326
-0.972088
-2.150243
-2.630500
-1.838244
-2.068803
-3.189207
0.326242
-4.988126
-6.667993
-4.672359
-5.023858
-12.534004
-4.174995
-7.902415
-6.532730
-8.699205
14.178047
61.098362
90.627504
107.858911
105.089099
109.572750
107.426562
105.904935
100.288172
91.370977
79.817226
55.345114
50.628001
30.800934
28.225227
15.808551
50.723256
79.892954
74.596838
74.028481
51.468349
43.888930
38.337369
17.048027
14.324180
-1.461335
4.978673
-5.496038
-9.288612
-1.266284
-1.201267
-6.335548
0.551675
-10.060870
-7.847817
1.689920
-5.413809
1.385797
-1.501473
-2.794842
0.213526
-1.370894
0.131767
-1.211558
-0.373880
-0.015559
0.072428
0.146430
-0.114645
0.735887
1.988120
-0.221216
0.500695
-0.289034
0.629805
-2.462295
-0.392376
-1.693323
-3.164216
2.389654
-2.095129
-3.921845
4.702763
-0.625703
20.440581
73.347103
102.431181
106.097886
112.831851
109.292978
114.495823
117.452843
112.469420
96.635949
77.822317
63.196627
58.271226
46.046464
38.606618
33.611073
31.211218
21.247440
4.047378
8.876782
-0.810588
6.293590
1.541447
-5.303404
-0.754073
-9.445501
-7.069663
1.346207
-2.634058
-0.641043
-2.404455
4.518962
8.939407
-1.977138
-0.462616
0.831342
3.023205
2.687293
1.451992
3.397119
1.016790
1.770124
-0.121911
1.121271
0.510678
-0.098234
-0.643981
-0.679216
-2.386532
-1.706054
-2.685075
0.902963
-2.820562
-4.027612
-3.514986
-2.835258
-0.775560
-5.970471
-6.297919
-6.810921
-10.497621
-4.536412
-10.114670
-10.538876
16.070978
62.891903
94.703531
108.448304
113.487776
102.772441
102.893912
100.929371
95.159902
96.633821
69.812084
55.240492
55.397425
25.711682
30.685358
23.224689
20.698951
8.225165
5.750942
-1.602205
-3.987071
-6.355962
-3.893715
-10.751213
-8.230211
-10.238211
-11.983829
-13.742057
-13.196118
-6.952814
-4.804360
-11.417918
-9.160205
-2.501158
1.862360
-5.883151
-0.763176
0.352437
-1.493693
-2.794842
-1.694923
-0.332825
-0.270904
-0.691678
-0.676726
0.050802
-1.790837
-6.358928
-9.573331
-12.554397
-13.820480
-15.999602
-17.899240
-21.666168
-14.540385
-15.129361
-8.442627
-9.211728
-3.147503
-3.359194
-0.530434
-0.572417
-7.647342
-6.155139
28.249641
67.345040
92.330941
99.133126
113.200984
111.183960
121.161635
100.897347
105.446344
101.211272
72.694506
70.448354
53.294234
53.552192
38.681220
26.331532
36.141382
13.779901
23.585714
6.426687
6.363307
-3.166610
-5.409249
3.786257
-0.754073
-0.734696
-0.716127
1.341484
1.295823
5.006985
1.182458
2.824856
2.650775
2.456913
4.961580
2.061275
2.991515
-0.339091
2.307016
0.477077
-0.202647
1.726525
1.982041
1.491323
0.410763
-0.132564
-1.094343
-1.189728
-1.328836
-1.283655
-3.899562
-2.494783
-4.454166
-2.349213
-3.549278
-0.718283
-1.960472
-2.123845
-0.897854
-11.194591
-7.345753
-11.371123
-10.127926
-4.941449
21.932302
73.181555
99.103011
107.218142
104.756538
108.082142
110.631772
117.847527
112.635122
97.094421
67.796646
52.817519
52.817519
28.198675
18.199456
18.268198
18.199456
-1.631618
3.285781
0.825528
-1.596013
-3.948173
-3.889825
-8.393101
-15.005515
-10.249126
-9.899848
4.814360
-7.252873
-8.841099
-6.618461
-6.266963
-7.476732
-6.920070
-3.664025
-2.069387
-4.217983
-2.723094
-2.349213
0.251627
0.815175
0.169868
-0.984551
0.338611
0.406567
-0.000000
0.316898
-0.312515
0.557850
0.763582
-1.325851
1.119656
-0.264006
1.444079
-0.330210
0.703807
-0.396413
2.120620
2.267006
0.957303
-0.533664
6.156197
-2.382133
-0.626510
32.142950
77.256315
109.120726
120.918162
115.768311
109.872475
107.579445
89.251351
49.800356
23.608724
1.624896
-5.776922
-8.222757
-0.834001
1.626470
-3.287789
9.007579
-3.278223
4.047378
-0.820276
-0.807358
8.667506
1.543021
3.778344
-0.759724
-0.733081
-2.796694
7.411851
7.124097
-0.632162
-2.385322
1.110031
-0.534471
2.437131
4.917981
0.807724
2.972501
-1.326596
3.104258
0.470779
0.985139
0.763582
1.238215
0.793504
0.322634
-0.171463
-1.166103
-1.255218
-1.800965
-2.730828
-0.999685
-6.043905
-2.143579
-3.257792
-3.617864
-8.360063
-6.747532
-3.458391
-7.794791
-6.832751
-9.040897
-7.967904
-11.995053
-1.230679
18.194860
65.580378
101.762296
102.428615
98.429292
103.090951
108.186143
108.399445
100.384976
89.519763
77.202196
47.912546
43.322716
30.656465
25.735893
25.784314
15.719489
8.240802
3.285781
-8.916062
-11.198726
0.810446
-13.296217
-3.804249
-10.456510
-8.007309
-3.512512
-13.632869
-1.303436
-6.935667
-2.995165
-6.275536
-2.672310
2.000313
-3.670257
4.151676
-1.894345
1.373256
2.048431
2.462858
-0.410226
0.166693
0.876334
0.322935
-0.082045
-0.004037
-0.389666
0.602106
-0.115452
0.755669
-1.303568
-0.224446
0.506993
-2.862856
-6.991824
0.703807
-3.848950
-0.431937
-5.869852
-4.850950
-6.851605
-0.577261
-7.730016
4.918253
32.103267
73.172467
93.394661
110.001827
110.768339
116.154054
116.680810
115.319739
107.435772
96.258096
82.337328
65.849982
48.466947
53.242642
35.931867
28.745983
23.654745
8.920381
8.902941
6.439363
11.146102
-0.798477
1.532000
-0.771835
-5.203129
7.900162
1.377697
5.368248
3.208625
10.530433
-0.602289
2.789249
8.952891
3.891505
8.963803
-10.268359
-30.538882
-29.915723
-21.123005
-14.532717
-13.035501
-7.471776
-5.864185
-2.403600
-0.594305
0.142246
0.216335
-0.710372
-2.147545
-1.783212
-2.772394
-1.143609
-2.118654
-4.114931
-4.584274
-6.150992
-3.140593
-4.715225
-7.715253
-3.894585
-4.231077
-7.924245
-11.963857
-6.807070
29.884647
73.351745
101.422711
109.155576
107.082460
94.286370
108.294655
117.963063
105.343056
84.351380
62.837019
50.342236
53.067366
40.633020
18.199456
23.137214
13.264834
8.232984
3.288916
-4.045418
-4.018189
-1.571245
-13.309473
-8.375954
-1.489199
-5.838761
-1.396318
-5.446187
-15.141402
-3.142979
-3.010725
-7.967904
-4.262233
-5.452515
-6.363408
0.426258
-1.902125
0.344499
2.070339
-2.734831
-1.638841
-1.321043
-0.614592
0.335476
0.163035
-0.001615
-0.040368
0.403551
-1.529468
0.759625
-1.892666
0.439289
0.505418
-0.289842
-2.261746
-4.578071
0.771511
-4.254521
0.895897
-4.835045
2.615168
6.182356
-4.150248
4.911915
32.063584
79.349167
104.614542
108.355085
112.954896
109.640676
112.074560
114.740243
109.515199
94.015134
72.694506
50.932182
50.882972
41.269960
41.071547
31.120751
11.479152
16.277632
13.739451
-0.814625
-7.976234
-0.801707
-3.086887
3.766475
-9.610849
5.716836
-0.707246
-0.683025
1.281652
3.082021
2.923766
2.769467
-0.530434
0.965175
-3.136362
-0.411753
1.823892
1.622116
2.243636
1.155263
0.977226
2.982646
1.220776
0.526050
0.417981
-0.304898
-0.260618
-1.577517
-2.604907
-1.321043
-2.186150
-2.597660
-5.334601
-3.232072
-1.633727
-7.268784
-3.184212
-6.046875
19.777169
28.711298
42.434254
35.196700
35.141905
30.685200
51.439197
96.553381
121.514645
124.468593
125.464028
114.813748
115.421254
108.611785
100.481779
89.434668
67.668606
60.528035
43.282114
28.304884
20.777060
15.838239
13.239830
10.648098
-1.616137
5.679740
-8.830331
-3.955952
-10.904022
-10.740298
-12.739446
-5.801373
-5.620665
-1.349877
-11.161929
-10.697953
-10.141182
-1.130058
-7.498562
-3.956898
-0.899402
-5.774002
-4.140825
-0.670295
-1.431456
-1.225295
-0.402486
0.649004
0.485969
0.542232
-0.286641
-0.015945
0.621695
-0.568222
-0.478340
0.771494
-1.342563
-1.587679
-0.267236
0.577846
0.645550
-1.454153
-1.584899
3.441510
2.278876
3.891505
-0.540930
-5.662092
2.971242
-2.484178
34.072264
82.027854
99.327694
104.309311
113.570118
116.400143
112.769955
119.818040
107.435772
96.919339
77.294453
62.891034
48.560602
36.281059
33.741222
28.718209
33.545998
16.277632
6.452039
4.007814
1.572937
6.242886
1.527276
-7.570662
-2.959329
1.429656
5.545711
1.336760
-0.657997
-0.630547
1.166713
1.103732
-2.085562
2.385698
3.530241
3.226019
4.019839
2.560534
0.551079
1.838007
-1.359276
0.724018
1.874174
0.526050
0.287754
-0.405554
-0.600120
-0.474559
-1.028170
1.161143
-3.473189
-4.029960
-0.535616
-3.283511
-3.669302
-5.108191
-2.011040
-3.470854
3.204096
-9.889290
-1.058849
-2.862911
-8.415417
-6.875655
22.277484
76.069618
103.983112
100.264791
110.106562
101.440315
108.511679
113.403109
98.334374
79.362859
70.276613
50.628001
40.671281
33.016172
28.198675
13.252332
15.660114
10.688740
-1.619233
-6.480589
-13.654141
-13.481807
-20.342404
-3.800359
29.986306
55.241987
55.756636
55.632942
41.874249
38.101976
29.231288
19.170850
16.439013
16.701475
10.019153
2.886425
-0.739956
0.338943
1.150650
0.971939
-1.011355
-1.277424
-0.243040
-0.385093
0.240992
0.014171
-0.568384
-0.083158
0.601370
1.700366
-1.948332
-0.232519
-2.624284
2.345043
3.557689
-0.364926
1.962365
0.848662
3.631648
3.885167
-0.540930
1.132074
-7.719682
3.093890
37.930654
81.543628
101.991327
110.124871
116.019163
112.011926
101.494706
125.300696
114.879573
84.535845
74.780009
53.449009
41.190595
33.643610
33.773759
23.861839
31.090595
21.082412
8.902941
8.868062
-0.808973
8.589028
-0.781523
10.546610
-2.956140
-2.879606
1.374548
5.342896
-0.655575
-2.484178
4.690087
4.455583
8.845024
0.954154
2.199748
-2.852251
1.839717
0.650273
0.541632
2.563629
-0.762155
1.166184
0.534111
0.706306
0.217996
-0.081686
-0.454887
-1.590774
-1.423141
-1.868944
-2.816054
-4.679475
-2.137348
-2.374139
-1.664845
-4.029374
-5.544788
-3.458391
-6.439813
-5.401076
-7.498562
-1.136250
-2.999055
-1.236871
31.986069
75.807308
99.878985
111.804695
108.101215
99.253862
108.837213
104.328190
100.675385
87.056188
65.069968
47.912546
40.709542
33.297294
25.760103
23.246558
15.734333
10.688740
-1.614589
-4.037639
-1.594465
-18.262970
-15.520257
-10.696639
-8.187345
-5.813836
-3.504733
-3.388038
-11.161929
-4.997531
-4.760740
-7.924245
-2.629522
-2.442810
-3.614175
4.143857
-1.886565
-0.661006
-0.572769
0.248452
-0.396294
-0.325085
-0.241492
0.313529
0.038101
-0.019134
0.080300
0.419376
0.581588
-8.011633
-15.306856
-23.227533
-26.499016
-23.636704
-23.709555
-24.792115
-21.577399
-19.655094
-22.065089
-9.254884
-0.534471
-7.378652
-4.178102
-2.487367
36.046025
85.859273
105.700507
115.282809
113.816207
107.614462
103.287262
122.429326
109.950214
91.942346
67.990264
50.784552
55.700426
33.676147
36.176302
33.513461
31.150906
26.103003
11.312627
1.590257
-3.198499
3.924730
-0.782330
-0.767798
3.655696
-2.860472
1.369825
11.339429
1.273780
1.221821
-4.094540
6.042839
4.132347
-3.370335
-0.448891
0.788830
2.902784
-1.288329
-1.933068
1.818993
3.168568
1.595728
0.830272
0.308598
-0.116987
0.147881
-0.461119
-1.080215
-1.065558
-2.412201
-1.034694
-2.649099
-3.009171
-4.300485
-1.668735
-4.072240
-8.126688
-3.489548
-5.101016
-3.981823
-2.707318
0.586601
-3.014615
-1.243064
32.100851
80.697071
98.420092
100.807349
103.628653
104.046480
118.939499
108.824125
93.997716
87.056188
60.243063
50.342236
38.110109
43.079102
35.726499
20.777060
18.165085
5.772851
5.756419
0.824734
-3.987071
-8.736026
-15.598249
-13.004575
-10.412850
-10.139977
-9.812529
-7.441482
-9.124888
-8.721035
-2.952377
0.571519
0.535799
0.498492
-3.589249
-3.246526
-2.991041
1.319956
1.125568
-0.476791
0.802633
0.159549
1.164971
0.294717
-0.061921
-0.061279
0.241339
-1.136767
-1.581140
-0.644164
-0.797233
2.537469
2.078849
-0.302759
0.656571
-1.460531
-0.402064
-1.741157
-1.843203
-1.980327
2.674514
-5.709806
-6.004044
4.968957
46.098514
80.199337
95.377189
113.636067
113.693163
105.690137
115.678631
120.542016
115.447160
99.072602
75.437255
62.891034
55.970293
-0.832386
-25.462119
-50.040988
-37.520039
-49.556564
-37.154703
-48.926813
-45.968693
-40.553728
-35.291488
-23.270506
-11.736975
-2.870039
-0.703209
-2.681892
5.127406
-0.625703
-0.596638
-0.564343
-3.643305
-4.787331
-1.763480
0.795128
0.716403
2.516168
1.353082
0.450310
0.921837
3.247968
2.062468
0.469009
0.364898
-0.043345
-0.685851
-0.482338
-0.261616
-2.929675
-3.473189
-4.773064
-1.357549
-5.156758
0.342912
-1.839887
-5.653938
-2.182192
-5.092443
-0.986091
-9.173462
-4.604957
-6.669900
-1.246160
40.102330
88.800746
104.445259
109.627090
103.411630
106.449957
111.296893
111.550005
106.053462
86.890682
65.440034
45.606697
43.119704
35.659344
30.598677
18.216642
18.165085
20.562260
0.829497
-13.773449
0.816002
-1.577437
-8.513124
-10.663894
-10.380105
0.734243
-5.608202
-9.517825
-5.203165
-3.111860
-4.729584
-2.785115
-4.181226
-2.419471
0.454834
-5.708512
-0.733764
-2.598467
0.284172
0.943721
-0.388554
-0.308057
1.149334
-0.140870
0.030957
-0.057401
-0.345390
-0.906571
-1.272380
0.318051
-0.201840
2.563629
-1.871790
-1.202228
-1.329785
-2.573711
0.796703
-1.760291
-3.247778
-2.005839
-5.383759
1.135223
-6.043806
4.962619
42.047241
84.144273
106.183157
110.986183
116.646294
105.801273
119.968435
118.162528
108.393120
87.229385
72.694506
53.345825
45.690893
36.071544
23.838829
26.229964
13.874284
18.703184
1.607576
4.003858
-0.805744
1.550894
3.825821
5.989368
-5.136280
7.856562
11.649544
-0.678181
1.272205
1.212374
4.658397
1.086413
-0.521554
3.790097
3.460524
3.149964
-10.076081
-23.013920
