505.000206
552.011507
-18.688599
219.120690
291.345756
195.962994
194.166741
178.773423
154.633286
151.786424
141.947636
126.195908
103.095945
88.839942
72.295234
62.867986
49.715878
48.003164
45.654926
33.138343
27.969994
22.898714
17.598647
15.078244
-8.408887
-8.221834
-5.873041
-5.719135
-5.596011
-15.650755
-9.014945
-12.510249
-2.895631
-9.566009
-5.849661
-8.246560
-3.478269
-5.717059
-5.293975
-3.579516
-4.133206
-2.593236
-0.998231
-1.760000
-0.929590
0.084676
-0.125731
0.062573
-0.047944
-3.035746
-8.809248
-15.634311
-20.384330
-22.631460
-19.356375
-24.566960
-20.646520
-25.228145
-15.762434
-19.644295
-13.795381
22.138217
88.010893
131.371275
150.845884
145.367871
139.097069
144.449342
148.103354
151.272232
139.584094
147.896486
155.291311
147.446648
148.148468
132.480818
114.179333
103.114278
86.754694
68.171454
58.411884
58.690833
57.853987
33.074862
33.074862
40.161644
22.909738
18.058598
10.734243
1.408958
-3.090298
1.357375
3.451660
-2.823837
-0.737811
5.007050
-2.472889
-2.342908
2.592580
-0.559352
-1.891224
-1.725498
0.713322
3.757185
1.434357
4.210250
1.629770
1.797287
0.232861
0.383518
0.480475
0.000000
-0.712503
-0.892753
-0.935747
-1.249714
-2.091594
-2.440193
-3.590790
-1.398285
-3.511497
-6.003495
-3.041176
-3.299738
1.856230
-6.650013
-0.975121
35.907130
78.915061
109.769124
118.362246
132.832017
133.360609
119.300911
124.194629
116.434203
130.146448
119.958907
126.441664
113.480132
89.522670
57.803464
57.529254
42.762968
40.378657
30.777218
33.232486
42.681437
20.574238
-1.521248
-1.510999
-1.468539
-15.400815
-3.699550
-10.392680
-1.360192
-7.669177
-3.314736
-5.189700
4.481594
-2.933732
0.636833
0.598905
0.555685
4.609619
-0.778926
2.725746
-1.657368
-1.417335
-0.453885
0.226684
0.180818
0.133188
0.518393
-0.064422
-0.009766
-0.446464
0.156223
-0.497177
1.711702
-1.369059
2.456292
1.257938
0.540887
1.583929
-3.603598
-0.440378
3.352492
-3.192601
-7.845881
-2.157685
-0.634820
6.487350
8.506587
49.559986
87.258557
104.966480
116.614079
117.645312
131.937365
119.474909
126.763140
100.558538
38.188424
8.875174
-13.216120
-20.611076
-18.150221
-35.613246
-18.202477
-27.885877
-34.934251
-13.051077
-25.115925
-17.575406
-5.605286
-0.865663
3.700947
-5.302298
-0.817719
-0.795522
-2.791342
1.226206
-6.370078
2.918571
-2.323410
-0.597529
-2.040702
3.544594
4.527451
-5.011958
-0.380004
0.540887
-1.733767
1.580195
-0.640156
0.923330
0.588700
0.058952
-0.155407
0.050276
-0.935266
-0.222550
0.652102
-3.245846
-1.082052
-3.569094
-4.013874
-9.325106
-0.660330
-4.217197
-3.330519
-0.841884
-2.350795
-7.322609
-14.648520
-8.244715
2.556755
19.936703
67.105409
92.761635
97.300570
99.961964
104.884801
110.703256
108.052602
102.996528
93.904465
67.437467
60.447601
38.201400
30.661078
20.751094
23.206670
32.981438
5.841680
8.260881
3.341215
-1.499286
-11.011034
3.202401
-1.433399
-3.634779
-3.531908
0.794718
4.877357
-3.185194
0.705632
-6.504347
-1.061506
-2.575588
-2.400326
-2.209824
-3.275113
-2.991927
-1.649748
-2.271648
2.455296
0.823198
0.655330
-0.224014
0.512819
0.277211
0.022107
-0.054159
0.687850
-0.136730
-0.656404
-0.219301
0.430351
-1.078842
-3.833890
-0.367574
-1.478534
-5.125632
-0.482108
-7.312666
-1.998458
-3.776134
-9.102745
-0.672998
-0.700521
14.745755
63.629242
87.976277
101.670256
108.752445
111.682199
115.315093
112.467097
114.828906
99.005978
75.068725
60.826090
48.428850
31.124067
36.089761
23.750671
26.193216
8.849498
8.798147
-5.739948
-0.894075
1.466437
-0.870990
3.681771
-5.307909
1.345585
5.496600
-0.761784
1.218837
4.901703
4.660026
6.067983
4.120901
3.879224
4.878350
0.772274
-0.423509
-17.398591
-21.393888
-19.394968
-17.065741
-12.218830
-7.397902
-3.732038
-1.089332
0.464562
1.124791
-0.166913
0.143773
-1.286652
0.219628
-1.131582
-1.287794
2.970116
-4.502048
-2.819552
-3.090426
-2.076472
-0.847741
-5.365023
-7.333457
-7.886721
-13.683231
-4.875732
12.445535
55.362949
76.209480
93.520558
94.048953
105.755215
113.607528
103.798661
108.273963
91.633070
67.630146
50.528541
45.568703
28.316949
20.849347
13.318683
20.652841
8.316323
3.370269
3.331530
-8.680965
-3.840522
-6.100821
-1.429007
-1.396795
-3.528098
-5.534449
-9.405484
-5.140450
-3.055653
-11.888621
-7.767389
-0.976585
-5.288501
-3.490581
-0.761356
2.670004
0.370457
-3.069371
-2.559227
-0.358716
-0.731528
-0.861872
-0.125917
-0.238068
-0.015094
-0.214469
-1.498081
1.010086
-0.189114
-2.614486
3.944619
-1.907705
1.465038
-3.356449
-2.597845
-1.657258
-3.052328
0.859229
-5.006769
-5.405398
-2.375403
2.922406
-0.704073
12.874364
57.728270
82.719993
88.762815
98.637921
106.141636
107.903323
110.435748
103.578478
89.603588
75.068725
50.848085
43.534896
41.103852
23.682488
33.557472
16.284584
16.190724
6.376552
11.072760
-3.275521
-3.226778
-0.867439
-0.853233
-7.486236
1.345585
-9.135198
-0.752905
3.160187
-4.404554
-7.750451
-2.281167
0.971238
3.780075
-1.816484
4.407632
-0.412855
0.607208
1.346148
-1.649604
0.920443
0.280023
0.824180
0.489551
0.185905
-0.238663
0.063507
-0.751060
-1.445410
-0.313327
-3.522930
-3.997932
-2.950338
-5.998703
-7.637568
-5.131250
-3.139676
-4.718840
-10.517307
-0.928269
24.890431
36.859973
47.647803
42.101640
55.454764
96.698627
120.474648
135.363747
136.937343
128.823822
125.349607
113.704248
105.325112
89.522670
67.887050
50.576345
33.295248
28.290261
15.826173
15.841132
10.820578
3.386410
0.916440
5.746919
0.898799
-6.174696
-3.779561
-12.864633
-10.338438
-10.056382
-3.413797
-5.325137
-11.030598
-6.767921
-8.212170
-7.789086
-0.983906
-0.913627
-4.829371
-4.446762
-0.696934
1.349399
-2.179305
-2.533719
0.794144
-0.284044
0.119957
-1.081949
-0.042460
0.029476
0.260792
-0.102992
0.621299
0.310973
-0.228180
-0.264582
-1.095090
-1.225071
0.614577
0.682372
-1.650759
0.809119
-1.897723
-3.518033
-7.037410
-5.796053
-0.672998
-2.583372
16.822522
61.761744
93.052654
97.292886
113.257337
111.916579
115.315093
115.288077
112.747962
91.428011
74.562481
63.175366
43.410034
43.534896
31.124067
23.750671
30.825944
13.706556
6.339371
8.738238
6.234025
3.800662
3.743134
-5.347185
1.378008
3.490012
1.299897
1.251261
3.125670
1.152516
-2.398149
2.684625
4.065129
-0.538043
2.159205
-0.457248
1.794863
2.528312
0.511411
1.790888
-0.211311
1.998338
0.811786
0.808071
0.130134
0.090390
0.069681
-0.188875
-2.295842
-2.915983
-2.236135
-1.883806
-2.148523
-4.176599
-1.630698
-3.987632
-7.925748
-5.999115
-6.367957
-0.934125
-9.077813
-11.484564
-8.385743
-1.178638
2.705254
43.680322
76.550843
93.724085
101.132978
96.932061
108.910463
104.002188
98.324680
81.748013
60.161662
45.482480
30.661078
38.165327
18.308130
20.731443
13.306071
-1.530033
-3.970063
-11.217151
-13.484774
-10.913399
-24.650671
-15.090002
-19.180659
5.139340
40.820873
55.491402
57.064303
47.329592
34.184072
37.534504
25.510398
19.456224
17.855793
11.460355
3.754226
4.250208
1.934220
0.932957
-1.477495
-0.272331
-0.196196
0.235661
-0.147749
0.036845
0.113483
1.332226
0.648145
1.857196
-0.233507
-2.447577
-0.305424
-2.177028
-1.397296
-1.524027
0.756062
-5.745668
2.258920
2.419997
-0.613511
4.548483
1.123040
1.177571
14.925800
57.863465
87.288349
100.856576
107.250064
108.530749
118.236731
118.362036
113.078278
86.988646
65.452016
53.211225
45.960909
33.589646
35.986154
30.975006
21.017970
13.693275
3.934893
-5.706283
3.854354
-3.230028
-12.327428
5.917986
-5.229356
-2.940820
3.363451
-2.752348
-2.641864
6.667078
-0.657904
1.022821
-5.182166
0.887231
2.120854
-1.637761
2.831957
3.431962
1.292455
2.379265
0.882091
1.506298
1.069814
0.731632
0.086756
-0.215468
0.267943
-0.495305
1.409815
-2.440870
-2.939892
-1.914587
-2.992850
0.351052
-2.708740
-5.196340
-4.438260
-3.453644
-9.277787
-3.976923
-7.593816
-6.325796
-8.429136
-4.980388
6.660979
59.958869
74.612304
94.741719
108.273308
97.230313
111.147847
102.201188
100.857093
77.291144
60.333225
50.528541
35.717097
25.657247
8.395527
10.830844
10.841111
10.769247
-16.193390
-8.748984
-13.497969
-1.475859
-1.450969
-3.691930
-12.495187
-12.138936
-11.756295
-7.312076
-3.166144
-4.894201
-2.872771
-2.708939
-7.203277
-5.237487
-4.786859
-4.353236
1.514038
-1.569737
-1.318274
-1.104912
-0.899170
-1.145058
-0.806466
0.248573
-0.030747
0.154921
0.599096
1.343145
0.663486
0.828398
-0.854625
-16.837165
-22.783930
-28.156580
-29.691615
-30.385450
-31.954012
-31.775986
-26.813866
-23.021226
-12.036279
-10.991804
-6.146846
-8.205144
18.818714
55.972351
88.680893
104.264516
111.661381
108.080880
113.106331
116.091879
105.390205
91.872267
74.924084
57.853987
38.372909
31.004818
28.521540
26.168127
28.439187
23.432481
11.160119
15.877860
6.234025
8.447248
3.697112
1.398642
-3.022058
-2.927822
-4.898313
-4.746819
5.031837
1.137778
-2.391650
4.288216
0.952079
3.687122
3.402067
3.110815
2.776186
6.069566
2.063549
0.409718
1.925665
1.446388
0.984229
0.954236
0.162930
-0.554169
-1.187505
-1.164831
-3.702596
-2.505959
-2.304154
1.016891
-4.723629
-7.083084
-2.708740
-5.239733
-6.900721
-6.129295
-6.498137
-3.995392
-1.032223
-4.586390
-2.956592
-10.713930
10.607020
62.427638
69.044466
92.756526
97.692858
102.756155
109.998479
97.377429
100.760022
72.364153
57.967990
43.211388
35.885733
38.237473
20.751094
13.356520
0.931435
0.923496
-3.985303
-1.508070
-3.893862
-6.199321
-10.728978
-5.983853
-3.627159
-3.505238
-3.383317
10.834043
-5.066575
-2.990882
-6.376810
-4.297047
0.577736
-3.724518
-3.398238
-5.510941
0.401328
-2.450179
-2.080805
-1.736056
-1.955555
0.157003
1.221678
-0.247653
0.179503
-0.116983
0.131169
-0.438686
0.265285
1.381896
-2.136647
-2.535275
1.357653
-2.182639
2.708021
-1.556522
-2.923277
-0.499865
-1.939966
-6.675722
-3.922017
-7.626444
2.964593
-0.712063
24.744230
66.642698
91.276366
102.345059
112.498244
115.247935
120.572128
123.376131
117.699482
82.343241
60.419032
65.577765
58.132936
45.872946
30.885569
-15.599327
-47.267446
-61.245248
-61.245248
-65.490343
-62.226234
-56.644148
-39.598208
-23.180161
-29.250529
-22.004000
-15.119378
-2.713353
-17.912853
-11.609152
-7.502437
4.244838
-6.572383
3.656138
-0.481220
5.383501
1.714325
4.215074
1.238763
2.882849
1.865755
-0.143833
0.425705
0.218605
0.015341
-0.580558
-0.354334
-2.191236
-1.145058
-1.465182
-2.372173
-3.514852
-1.375425
-3.443478
-6.931144
-3.041176
-5.792997
0.500117
-8.075031
-4.038485
-12.806789
-9.935455
-6.657390
-12.712278
18.609330
56.519020
75.276262
95.148773
99.736977
100.542233
103.391608
104.816295
86.895531
70.034107
55.488071
50.671952
30.835288
20.829697
23.272661
18.273521
13.306071
8.300483
0.917322
-1.510999
-8.680965
-17.958123
-8.391882
-10.468618
-5.805323
-3.482378
-1.292841
0.754144
-8.906462
-4.832639
2.382431
-4.327828
-5.518067
-3.712205
0.486004
-1.927881
-1.737379
-2.419397
-0.487561
-0.404104
-1.378995
-0.647707
-0.434345
-0.089313
-0.013177
-0.036402
-0.078132
0.861361
0.713343
0.341923
-0.883871
-0.279676
-0.316078
-3.165107
2.695627
-2.682009
2.013469
0.823857
3.705712
2.489031
1.028716
2.834197
2.964593
1.187888
24.863479
70.891913
85.862743
96.319508
101.818136
107.022480
120.937867
113.816702
98.430362
82.422646
62.630751
55.404940
43.285173
31.064443
28.576442
16.284584
28.329383
11.236558
-0.904729
-12.822556
10.908961
-3.200782
3.697112
-3.070801
3.513023
-7.127471
-4.853426
5.168168
4.976065
-2.492386
6.213477
-2.206427
8.447064
5.023845
0.791434
4.227903
3.791419
2.373391
-10.863907
-16.506458
-14.340474
-10.090741
-4.956269
-2.800634
-0.100961
1.915977
2.385588
1.891858
-0.746768
-1.483651
-3.059223
-3.504004
-4.815991
-3.426473
-5.818772
-8.800196
-5.760452
-6.194384
-9.479816
-2.518437
-7.778238
-13.522252
-1.146426
-8.906462
24.708880
71.374260
83.880341
99.961964
102.410447
107.931248
98.333239
102.698275
96.905812
70.034107
57.967990
45.698037
35.649643
20.770745
23.294657
3.412236
10.820578
0.923496
-6.371695
-11.173758
-13.445191
-3.821471
-10.696433
-8.196327
-14.654863
-16.437764
-7.516134
-13.287283
-5.048107
-8.429136
0.654474
-2.647979
-4.007704
-2.278405
-0.797960
0.442784
-3.834589
-0.568089
-1.268744
-2.338164
0.194931
-0.647707
-0.714122
-0.089313
0.019369
-0.558606
0.761707
0.533090
0.272654
-0.757139
-0.242386
1.945809
-4.545025
-4.102572
-4.536597
-0.425285
-0.467902
-1.806736
-0.533604
2.492866
2.684625
-4.163286
-2.508633
10.678364
32.545457
69.320781
89.486168
103.019861
95.425070
118.011951
114.024961
123.132304
100.755133
67.519095
57.965566
53.109092
38.409806
38.409806
28.548991
28.439187
16.143795
3.934893
11.171038
3.877365
-0.885196
-0.870990
1.422223
-5.291076
3.528364
-2.892077
-2.794591
3.206209
8.703145
8.310030
-0.639259
-0.597529
-0.556688
0.844491
-1.718999
2.993075
1.652962
1.415181
-0.274349
0.378768
1.270353
0.575277
-0.308705
0.531262
-0.075938
-0.220982
-0.926763
-0.594366
-0.297222
-4.997492
-3.800015
-5.159506
-3.179903
-6.402761
-2.794927
-5.380761
-12.192633
-3.558300
-13.908633
-13.596417
-12.914108
-10.054205
-12.339301
-12.821062
22.845720
67.601293
82.560301
111.331321
157.878769
175.246609
182.947210
183.381164
160.892949
115.656166
98.106743
65.778721
55.750550
33.295248
25.827646
15.856090
15.766339
8.308403
-6.414789
-3.928152
-8.621448
-3.829091
-15.307571
-5.934603
-8.017776
-5.583698
-3.356646
-15.185704
-5.017325
-4.764920
-4.524827
-1.008797
-2.449856
1.898197
-3.318207
-3.041176
-2.745677
1.226726
-0.468527
-1.625244
-0.313327
-2.124314
0.332507
-0.070279
-0.028054
0.072216
0.395023
0.556101
0.282971
0.352240
0.412666
1.250268
-0.325844
3.483313
-1.452538
-3.906556
-1.725498
-1.845730
-3.411426
-9.998024
-3.972515
2.868713
-2.528130
-6.481693
37.076600
77.567204
92.306573
103.919598
119.671496
114.260381
111.567360
116.551194
84.465220
67.519095
62.933315
50.750675
43.285173
33.525298
21.140167
30.975006
11.247478
11.247478
1.506230
-3.282020
3.816002
6.072907
8.250403
8.027881
1.347059
5.515191
3.298253
3.171692
8.637626
1.111250
1.052297
-2.167433
-4.998797
-1.855479
2.005798
1.829380
4.640950
3.115297
2.610345
0.962630
0.287392
1.266659
0.129695
0.051583
-0.092343
-0.247653
-0.714122
-1.768274
-0.796299
-4.489531
-1.120152
-5.314913
-2.333210
-5.528494
-3.928115
-4.276714
-9.783958
-6.324564
-9.666304
-8.919479
-4.469421
-6.504347
-4.906513
-3.162334
33.155834
78.129250
87.431291
98.487662
107.924560
108.257653
104.002188
102.897110
82.217830
62.927520
48.184995
43.333685
35.818279
20.908299
23.448635
18.256217
5.863976
-8.910530
-1.522712
-6.334758
0.897035
-13.194495
-12.956994
-19.484151
-14.577159
-11.954213
-7.448115
-17.157383
-4.980388
31.389405
47.077775
47.346831
42.606301
32.192252
24.274327
21.297010
17.977568
14.522486
10.657793
4.533771
2.166169
0.506832
0.322823
0.154955
-0.003551
0.076638
-1.043727
1.275218
-1.554650
0.350766
-0.922865
1.250268
-0.325844
1.553247
-0.399537
1.906084
0.791434
-0.509631
0.893126
4.133295
4.430743
4.660026
-0.695194
6.958068
41.350598
75.765196
103.116229
106.790749
111.096248
116.682557
109.995326
102.068587
91.605713
77.370769
50.604560
53.109092
40.946817
28.494089
26.117948
33.364428
6.370355
-0.912720
-8.108096
-3.285270
-0.884308
1.442856
-5.375240
-9.672563
1.350006
-2.875830
3.294418
3.183198
3.022120
-4.230617
1.041981
-0.591314
0.910812
0.840069
2.009633
2.962091
4.651869
-0.317854
3.984464
1.536817
2.096617
0.556101
0.895430
0.047162
-0.250695
-0.552657
-0.171305
-0.636277
-2.245600
0.222274
-2.508212
0.296366
-4.100661
-2.542522
-1.756429
-6.663220
-3.336675
-9.091299
-6.747648
-5.764637
-13.057201
-8.298956
-4.906513
-3.166144
35.302889
72.100100
91.265263
107.365356
105.428809
96.488884
99.498094
98.419405
80.058160
60.561977
48.048622
45.784260
18.377348
30.806253
20.908299
20.770745
10.830844
5.808235
-1.521248
-13.603525
-6.248571
-8.502414
-19.848341
-1.402652
-5.756073
-9.774326
-11.531989
-7.167535
-4.992701
-10.212539
-11.266994
-10.598745
-2.407946
-3.601393
-3.299738
-1.874540
0.380159
1.207357
1.013663
-1.612932
-1.280495
-0.225478
-0.590998
-0.252405
0.055772
0.644273
0.694046
0.218123
-0.653155
-0.789635
3.101246
-1.834763
0.537939
1.568588
3.842771
-0.440378
0.784065
-20.733628
-42.664353
-47.488303
-47.712231
-53.944417
-46.623094
-39.072722
5.242530
46.803016
65.160810
73.529259
68.993799
98.444850
105.277012
92.763608
96.662617
70.301406
63.054341
50.604560
45.697019
31.034630
13.799527
28.411736
23.477936
11.138279
-0.900290
-10.395939
-3.226778
1.432539
-5.335963
3.601232
-2.950569
3.374957
9.270979
-0.727157
4.870719
4.635239
6.025190
2.542723
-4.887181
2.166876
3.197571
2.906320
1.587764
2.193683
2.550436
-0.214862
-0.169581
1.506944
0.318320
0.231080
-0.238663
-0.936809
-0.744904
-1.028090
-1.811014
-3.404180
-3.287038
-6.960071
-3.230917
-2.622553
-1.767859
-3.139676
-2.110763
-9.091299
-0.926804
-7.409395
-2.811810
-4.740295
0.704750
4.665540
37.420657
78.743060
92.060603
96.980514
108.480299
119.013418
113.704248
103.195363
80.134116
60.333225
50.815363
33.326629
40.878108
30.806253
25.851989
20.868998
18.204303
5.841680
0.914676
-8.731979
-15.804873
-10.815764
-15.152165
-8.128308
-14.514997
-5.552917
-9.438029
-5.177387
2.589038
-2.907061
-4.444796
-7.290064
-0.920948
-4.854878
-1.996462
1.546321
-0.623726
-2.234711
-0.440708
1.987997
0.171998
1.108843
0.280856
0.189520
0.065198
0.396598
-0.370446
0.997692
1.251762
0.970300
-0.261919
3.658160
-0.332947
2.577887
-1.501281
3.073634
2.101678
-0.513183
-0.555800
-0.601081
4.492712
-2.466389
-4.426998
7.060770
47.644459
86.501968
106.408642
104.594400
110.005954
119.718735
122.766565
105.390205
88.998159
72.547357
58.188725
50.653265
40.907559
35.917082
31.034630
23.523392
-13.063773
-49.177737
-60.526125
-55.535042
-35.911660
-23.817248
-21.189864
-20.658457
-13.641883
1.294002
-6.768706
-0.726269
-2.541129
4.585664
7.622077
-2.134938
6.595608
0.825331
3.166587
2.893926
-1.322557
3.811039
0.422982
-0.206871
0.701838
1.121165
0.287638
0.148724
-0.369446
-0.824471
0.111137
-1.865909
-1.853526
-2.236135
-4.786530
-4.591684
-5.132659
-4.653925
-7.304120
-0.752571
-7.336139
-6.389654
-6.932069
-4.229328
2.398572
-8.418288
-10.595180
4.682262
47.548011
76.977548
87.904917
94.943711
102.235607
109.563273
109.649439
89.010624
74.756384
62.808452
48.139537
38.526058
30.806253
15.900966
20.849347
18.256217
3.383181
-3.989113
-8.842510
-3.905292
-10.967640
-8.468404
-8.281351
-5.860729
-12.218103
-9.720085
-11.479211
-16.995521
-8.700344
-4.654108
-2.754660
-7.224974
-3.823017
-2.167913
-3.207395
-4.038647
-4.534593
-1.341135
-1.131582
0.217864
-0.282580
0.774803
0.261486
0.027343
0.036845
0.599096
0.456386
-0.144721
-1.178288
-0.831878
1.150553
-1.114587
-0.335611
-1.364800
-0.415518
-1.631262
2.101678
2.235909
5.374744
-2.212927
-4.067901
1.124514
1.165780
12.905650
51.859472
94.922516
93.542821
100.848440
105.481004
114.963522
118.127656
108.016954
96.194743
75.068725
65.389142
50.653265
31.094255
30.975006
26.092859
13.759682
18.580731
18.472704
8.712562
-5.627730
-5.554788
-7.765276
1.403063
1.367692
-7.215169
-0.775101
3.240726
-0.728045
-0.688091
6.341855
4.337790
2.500536
5.152222
-3.125270
9.074311
6.056385
6.241642
3.723679
1.753707
-0.201544
1.078251
0.179804
0.764392
0.092953
-0.215468
1.226603
4.485717
10.597066
13.395168
15.269167
16.326197
13.485165
9.518011
7.458227
3.762146
2.909692
-0.818458
0.525696
-6.921221
-7.572120
-8.049445
-6.623380
-3.089943
12.580162
46.038825
79.093808
100.641536
99.632868
92.641173
109.345669
92.373903
91.808445
72.570907
67.758598
45.654926
38.309619
25.851989
23.338651
18.429262
13.318683
0.927906
-13.814637
-1.516855
-8.714974
-8.587438
-6.100821
-3.703360
-3.623349
-10.023838
-3.417607
-1.266486
-5.115825
-4.906513
-10.001427
-1.045400
-5.654105
-6.704255
0.499235
-1.977411
1.507582
0.365165
-2.992850
-1.809931
-1.483651
-1.996089
1.029640
0.429207
0.122631
-0.023972
0.106114
0.464057
-0.147385
0.828398
-0.230843
0.448037
0.506989
0.562994
-0.378228
2.906320
-0.454584
-1.803486
0.868072
3.934996
-8.747269
1.072931
4.740585
-6.290352
24.624981
54.197539
93.579566
102.457525
99.164833
110.694927
101.681459
110.986275
115.503709
84.465220
70.166211
67.584331
38.336012
43.160312
33.589646
21.119801
21.058702
18.508713
8.755355
-3.304767
-3.262523
3.800662
8.344546
-0.847018
-14.018314
-9.352211
1.288106
-4.735597
1.195257
2.972263
6.256270
5.931047
-0.572669
6.508249
0.810593
0.736903
4.881187
1.511060
-2.662836
1.728919
1.425274
-0.156263
0.762212
0.245451
0.098279
-0.221624
-0.714203
-1.139323
-0.689617
-1.947053
-3.549319
-4.156266
-6.367621
-7.029425
-2.684115
-5.207188
-3.207395
-4.786859
-2.270785
-7.029704
-7.582968
-2.830861
-15.801788
-8.797979
18.521342
48.041589
66.838437
86.097443
91.125571
102.235607
93.025885
111.848108
133.693651
144.076378
130.250888
105.780218
93.211439
68.208181
40.839689
35.717097
15.811215
10.748715
-3.981493
-1.515391
-8.706472
-15.727170
-8.442897
-5.990009
-12.547965
-10.045534
-5.491355
0.761201
-7.048501
-6.767921
-6.410820
-7.713148
-7.214125
-5.228985
-7.468084
-1.950741
1.504354
-2.517897
-2.933333
-3.879182
-0.351395
-0.273795
-0.495305
-0.115668
0.017641
-0.207287
0.112009
-1.012515
-0.150936
-0.190890
0.380242
-0.270797
-1.918927
0.564468
-2.373410
0.685320
-4.097897
-0.483883
-0.522949
-0.563791
-2.238923
1.074404
2.930076
-6.354132
22.729389
54.197539
90.967303
100.085837
109.689966
105.701214
118.356282
113.254367
102.370565
89.084648
67.649567
65.514891
43.326794
38.299115
33.364428
28.466638
13.746401
20.936505
1.510651
-0.898514
13.281547
-3.210531
-7.733386
-0.844354
-3.005811
-2.918073
1.282211
-2.719852
-0.720054
2.941582
4.492712
4.263428
3.965980
-0.528276
0.797329
-1.605265
3.817095
3.337818
0.481935
3.599299
0.824563
1.801780
0.975670
0.829090
0.018591
-0.167642
-0.350524
-1.198840
-1.163527
-3.652060
-3.026678
-2.763285
-4.776407
-2.480960
-4.849194
-1.851680
-4.506279
0.503645
-2.316505
-7.116491
-9.407675
-8.157928
-4.826482
-1.190351
16.683408
54.640273
82.020103
95.148773
99.945196
98.820993
117.230008
105.223349
84.278081
70.233824
58.022832
43.292919
33.452153
28.263572
28.290261
8.419287
15.826173
0.927906
-6.402477
-8.825506
-11.141213
-8.561931
-3.779561
-10.555405
-12.495187
-9.958748
-9.622450
-3.276635
-12.821062
-8.548467
-15.134107
-5.926182
-2.499387
-9.339950
-4.684830
-3.133520
11.246345
19.217099
22.634598
17.512115
18.871838
9.926401
3.985388
1.655306
0.133461
-0.294985
0.126747
0.196016
-2.209034
-1.251230
-0.880621
1.200411
0.524675
-0.348041
-3.460092
-2.693231
-1.689753
-4.432745
-3.321651
-0.571782
-2.251921
-0.654353
2.937746
-2.606119
28.733666
66.565654
83.375016
90.138982
108.168694
113.791621
111.342426
106.541600
93.493312
84.301687
67.714803
48.197133
50.604560
23.659760
28.576442
23.591576
21.058702
13.626867
6.333174
1.492965
-7.972563
-3.197533
-3.152039
-0.840803
-0.819494
1.319056
3.325099
7.146355
-0.712063
2.937746
4.498908
-0.603745
0.934393
-4.655977
0.791434
0.726586
4.815668
2.379588
0.470144
1.654557
0.801552
0.625134
0.650669
0.072216
0.000000
-0.068815
-1.073983
-0.556266
-2.104572
-2.571049
-1.723744
0.286663
-3.970481
-6.309517
2.474910
-7.630475
-8.329805
-7.534057
-0.893129
5.219483
-9.407675
-11.717674
-4.844951
-12.712278
16.703059
56.647472
84.065100
88.852168
95.639633
103.380812
100.610508
102.897110
96.721054
70.167252
58.132516
35.885733
30.835288
30.835288
18.411957
20.810046
10.851377
-1.537353
5.802661
-3.935773
-13.471580
-6.199321
0.873220
-12.785466
-8.009274
-7.788211
-3.375697
-3.265205
-3.116614
-6.640385
-1.087861
-1.021974
0.573326
-5.075941
1.781981
-1.924071
0.401328
-1.493536
1.087912
-3.026678
-0.326505
-0.253297
-1.003285
-0.236223
-0.034290
-0.287012
0.128221
0.201911
1.146416
-0.737642
1.050839
-0.280564
-0.310751
0.579206
-3.499955
-0.426173
-0.463463
2.163040
2.301107
-24.943922
-43.726542
-51.127851
-49.974368
-51.849215
-18.488544
35.918370
70.908886
90.040685
101.925880
104.727226
102.196563
106.330836
100.656835
79.200802
48.011759
53.109092
50.507149
40.986076
28.521540
30.945194
13.772964
16.081222
6.333174
-0.896738
1.469384
-0.875430
-7.669605
-3.061053
1.355901
1.317582
7.411669
5.161971
6.863924
-2.482637
-0.640147
5.811228
-2.050450
-0.517622
4.561685
8.732223
-1.416793
2.336210
1.208081
-0.236171
-1.167067
0.985298
0.148854
0.069269
-0.018469
-0.209552
-0.396244
-0.221086
-1.225089
-4.292778
-1.754525
-4.327794
-4.908352
-5.396549
-3.843091
0.435728
-3.293582
3.182824
-3.779924
-8.761145
-4.407859
-4.660264
-12.261598
-10.859070
20.813042
63.354076
90.668758
104.256681
100.673963
107.931248
106.399990
105.630402
77.364754
75.112706
55.488071
53.058302
33.326629
15.856090
25.925017
8.403447
15.811215
23.052692
0.919968
0.912030
-1.493429
-1.474395
-6.063884
-3.669070
-5.793010
-1.329445
-1.294305
-7.278066
-5.011169
-6.631883
-6.291786
-1.016117
-5.492559
0.523050
-2.080282
-1.912641
-3.851593
1.249324
-0.481704
0.238151
1.226307
1.370213
0.099671
0.047630
0.022296
-0.040842
-0.510592
-0.458183
-0.169581
-1.312950
-2.232318
-1.784265
-0.316078
0.590996
1.695149
0.713322
-0.467014
2.170711
-1.946465
4.021751
-2.294165
-2.411148
4.814947
-2.632115
30.993504
79.537725
90.291442
103.357262
102.356856
106.912374
119.312697
116.091879
93.949377
67.453859
72.897151
55.725508
40.829041
23.750671
31.034630
28.494089
13.679993
11.192878
1.504756
8.618419
6.184450
3.754639
1.419275
5.843623
-5.145193
-46.923832
-49.448499
-51.761762
-45.821892
-47.401565
-29.339605
-19.640324
-7.922055
-10.085391
-5.425316
0.708901
-3.420229
-1.192576
1.196576
-0.225516
1.763053
1.318010
1.235184
0.247874
-0.108483
-0.220982
-0.909758
-0.586746
-1.691980
-2.074589
-1.754525
0.291073
-1.413525
-4.436958
-1.718329
-6.544470
-4.608308
-6.226929
-9.619682
-7.257519
-6.104733
-8.255563
-14.148282
0.726801
28.904204
71.374260
93.011742
95.759353
107.257673
103.589032
103.493371
100.274665
91.808445
65.345559
63.106122
43.374450
35.852006
28.423705
18.342739
15.841132
8.355925
3.383181
-6.402477
-8.774491
-1.497821
-10.870006
-8.366375
-8.221834
-7.975264
-1.329445
-7.482124
-3.234725
-5.017325
-4.777233
-7.951810
-5.875168
-3.946142
-2.263164
3.004452
-7.708178
0.388098
2.107018
-3.525700
-1.662181
-0.819159
0.880711
-0.158128
-0.450628
-0.000000
0.410808
0.607291
-0.830413
0.288866
-0.213974
2.456292
0.480461
1.415181
-4.185244
1.725830
-1.589018
4.570244
-3.192601
-1.972462
-6.830731
-0.629492
4.616648
-2.531380
-6.489666
37.032618
75.592216
96.969654
106.675920
115.207948
105.696922
109.334694
111.867119
105.802288
77.445451
77.520133
45.916928
40.829041
35.986154
23.637032
18.706763
16.159438
6.376552
6.326977
11.050920
-0.884308
-0.872766
1.419275
5.831230
-0.815055
-0.791083
3.294418
-10.550044
1.170202
6.461674
1.044928
-2.177182
5.331951
3.556988
5.754777
0.697110
3.663042
3.098180
1.896234
4.004662
0.287392
1.978950
0.545322
0.531869
-0.153043
-0.804864
-0.960773
-2.915512
-3.216921
0.219628
5.816595
21.901120
22.563415
25.063847
20.089892
12.341769
19.731979
14.240502
12.222709
8.551200
-1.058578
4.280925
-1.163996
2.679428
31.095002
59.382532
89.111464
95.962880
96.832643
99.218663
106.608210
100.662950
84.600676
67.822824
50.815363
43.374450
28.423705
33.263867
10.871909
13.394358
18.221608
8.292563
-6.408633
-11.184607
0.898799
-10.859157
-3.745270
3.105554
-12.363242
-11.967407
-9.535664
-9.210214
-14.506014
-8.342350
-7.951810
-2.602258
-3.921517
0.513347
-0.780390
-0.717432
-0.639832
-3.188405
-1.200163
-0.386535
-1.286652
-0.582936
-0.146415
-0.067351
-0.006215
0.203264
0.391188
-0.133179
-0.172245
-0.792884
-0.255704
-0.293882
-1.205574
-3.284696
-2.536126
-0.436827
0.795855
-3.203822
-0.544258
2.550393
1.049350
2.876384
-2.531380
12.733575
35.002722
71.546048
95.265684
97.584097
99.797127
109.767887
105.066247
114.266571
93.675738
77.669498
58.021356
55.351512
38.446703
33.396602
23.614304
11.356676
21.017970
6.370355
-5.700672
1.485596
-5.594065
3.743134
1.411906
3.585892
5.639128
3.390297
3.286748
3.164022
1.162833
1.105354
-5.644574
-0.587763
0.916707
0.835648
3.203768
4.022499
0.617525
4.754794
3.221365
0.935783
2.550057
1.779727
0.508141
0.540138
-0.419598
0.061743
-1.958126
-2.243064
-0.822969
-4.025037
-3.287038
-4.552101
-3.273429
-3.613526
-5.044464
-6.742387
-8.593997
-2.228874
-3.890736
-7.344305
-13.146634
-6.512849
-8.678647
-3.189004
37.075766
68.057032
78.940390
96.369933
97.031478
94.914576
106.295881
93.364266
77.291144
60.619165
50.671952
35.818279
28.370327
15.900966
50.863167
75.682821
70.233824
74.827648
59.532595
51.654112
43.973583
29.064146
19.316596
9.917152
9.598900
0.798246
-7.456617
-5.202012
-1.184494
0.677407
-2.766090
-0.992691
0.558331
-2.209824
-0.780390
-0.711575
-2.671803
-1.417335
1.750274
-0.380678
-0.303078
0.136716
-0.597154
-0.167642
0.074362
0.085481
1.135668
0.941920
-1.094125
0.355187
0.422982
-0.290330
-2.059199
0.596891
-0.402200
-3.938446
-0.471453
-1.858728
2.335623
5.699967
1.052297
-0.667670
2.991439
1.195257
45.146744
77.567204
86.246487
99.340023
104.930477
110.330222
118.834489
104.772081
93.766951
76.997358
63.054341
48.150789
33.428776
21.180900
26.092859
21.140167
16.112508
16.003006
1.497387
3.862024
6.134875
3.735463
-0.847018
1.376535
3.470836
1.294002
-0.755568
-2.674359
-4.393333
1.097985
-3.950072
2.504371
0.907864
-3.147713
-0.453696
0.689741
0.608682
1.349983
2.516202
0.352240
0.713343
0.525419
0.299144
0.167315
-0.341895
0.059979
-1.334342
-1.419903
-3.403409
-3.417374
0.269022
-2.916328
-0.553447
-0.622262
-1.767859
-6.702804
-3.410550
-6.357109
-2.404136
-4.186235
-2.796570
-10.186150
-6.810434
