832.111577
1045.206001
-156.618352
-57.573561
105.375106
53.330086
109.276128
15.261293
0.300008
-1.687463
5.905429
0.258282
-3.077252
4.861540
5.886168
4.093536
4.952636
3.370270
-0.796126
-3.716951
0.094485
1.588203
0.445284
1.439277
0.628906
0.098267
-0.487642
-1.234775
-1.951889
-1.706748
-1.140745
0.524753
-3.042887
-1.751498
-0.135872
-5.326481
-9.121937
-8.657633
-6.900214
-5.861459
-12.130643
4.687662
38.254184
94.008870
110.080903
135.056139
136.971829
132.202345
137.610622
130.020085
133.343283
145.815688
129.110512
120.341862
111.333879
91.042753
81.315913
61.164859
57.210971
49.747871
48.860350
46.399326
38.643553
31.028941
26.303454
21.415333
6.695700
1.970338
1.922085
-0.324449
-6.882316
1.775315
-4.300508
-4.179367
-0.274481
-5.535454
-6.885507
1.320931
-1.659966
-5.500604
-1.390491
-2.372346
-4.076688
0.705703
0.603165
-2.340682
-0.984271
-0.049626
0.184971
-0.010610
0.076286
0.171054
-1.288850
-0.685788
0.562035
0.676071
0.800968
-3.855042
2.788675
-1.863936
-2.035383
1.387439
-1.120249
3.000591
3.244707
22.835157
50.711382
62.406124
65.816562
89.466419
94.073298
103.567673
99.323901
120.650405
121.823807
131.229402
135.355276
113.322773
98.590452
81.321185
77.226475
60.270194
55.278015
44.562115
32.376486
34.940138
32.189519
19.772185
14.844653
19.424628
-4.400471
-1.948787
2.595678
2.535945
2.468067
0.302766
-9.769943
0.277593
-3.389374
-3.248699
1.865304
-1.294465
0.204143
2.685275
1.341282
5.342400
3.842223
2.415857
-0.532777
3.624769
0.813720
1.544194
0.264459
0.016938
-0.939023
-1.416926
-1.050848
-1.376463
-1.176078
-2.049894
-2.375509
-6.879780
-2.923134
-4.271745
-3.552163
-1.417438
-2.861958
-3.008337
-9.412440
-6.778226
8.474491
50.591555
90.745093
115.152232
131.451195
123.182943
124.816308
124.969437
118.947623
131.408451
134.168028
116.640095
91.476290
71.483850
51.664825
52.057340
36.975220
34.485963
39.389567
26.941888
16.771807
11.820887
9.367908
-9.986911
-5.077830
-9.684573
-11.730364
-4.769930
-6.845314
-4.492315
-6.379093
-4.199557
-7.734005
1.507912
-0.244706
-6.466135
-3.109287
-0.193711
-0.177283
-2.407679
-4.086441
-4.370135
-0.808425
-0.086246
-0.068107
-0.050310
-0.253306
-0.181712
-0.030386
-0.123572
0.569604
-0.685788
0.540314
1.826806
-0.589498
1.688468
-2.517204
-3.801108
-6.425602
-3.423939
0.188970
-1.185073
-4.283307
-3.015707
-1.472732
-1.543634
13.431971
60.983813
93.745136
103.101677
106.014154
114.329580
113.877146
117.443236
112.428708
104.832944
86.228028
66.922092
64.580927
54.648066
39.918440
37.517706
32.376486
24.915475
17.463256
5.192548
2.753157
12.282642
5.055233
0.335526
13.839471
0.322767
-1.837370
-34.879531
-57.797745
-57.252935
-54.634445
-39.440616
-38.847977
-27.002869
-13.759221
-11.355430
-14.961520
-9.298439
-2.578104
0.111037
2.623718
0.581041
0.439853
0.554346
0.019656
0.005430
-0.468136
-0.032171
-0.385349
-1.398664
-3.900137
-2.020293
-2.353308
-2.686323
-8.628128
-5.338587
-3.574364
-7.590678
-8.197932
-3.053764
-9.369065
-10.091987
-12.507337
-2.099210
-0.276193
42.984541
81.857262
93.167996
106.549157
109.882410
112.296145
120.003994
105.342773
105.158985
78.541303
71.212307
54.450512
39.464169
26.890813
29.563537
16.997581
11.992204
11.992204
6.957618
2.076897
-5.148495
-9.830866
4.315059
-2.605823
1.912032
1.847695
-4.492315
-0.293647
-2.228558
3.455538
-0.257369
3.110856
-1.786619
-6.007751
-9.514990
1.043475
-0.161540
3.781624
-0.120813
-2.896594
-0.084535
-0.517392
-0.369181
0.180949
-0.146379
0.006552
-0.131675
-0.234989
-0.707768
-0.427437
-2.911420
-0.597601
-4.676950
0.130693
0.144831
-0.937930
1.376578
-2.413445
0.202074
-4.310373
-1.393727
-1.482861
-10.644573
0.274490
31.613261
79.803030
94.817282
105.781155
100.596213
112.072105
124.217450
121.967717
114.216839
88.338871
66.729048
54.805553
47.608054
30.028900
27.662042
17.649575
17.598761
15.019468
-2.086539
0.351388
-6.786977
5.039976
0.336215
2.595678
-4.097142
-6.123843
-7.995120
6.285703
-1.646948
2.106952
-1.482861
6.780394
-1.304594
4.414159
2.746304
2.502188
4.343383
1.952927
1.642696
0.730374
0.073450
1.222841
0.574689
0.728393
0.058960
-0.737380
-1.359093
-2.778741
-1.391264
-3.383273
-2.057295
9.677642
21.284903
20.721017
24.974515
21.514028
20.937060
19.885539
22.529639
18.184364
9.655533
5.010023
-0.266610
1.632566
19.452073
63.299523
86.602301
97.614205
103.026991
112.526025
108.636837
112.769555
97.609862
81.161319
59.153120
46.798556
39.464169
29.479867
29.424087
14.559056
9.540213
4.568116
9.422320
6.917323
-5.178781
6.769575
-7.326337
-4.906213
-2.568096
4.044550
-2.403716
-2.314790
-14.037132
-2.131547
-7.402408
-5.283843
4.439175
-4.543809
-4.166391
-0.176599
-3.522562
-1.126405
-2.612320
-0.808425
-1.241696
0.384015
0.289519
0.570847
0.221623
-0.083525
0.179200
-0.222834
-1.089435
-1.836593
0.681501
-0.593550
-4.663072
-1.657320
-4.787157
-2.035383
2.583560
1.482469
-2.558516
-1.286362
-6.240762
5.428223
-3.362997
-3.490483
14.024807
57.444859
94.496230
101.811683
102.167978
113.996016
112.645088
115.155920
99.973510
88.681601
64.394994
57.115864
44.691156
27.477100
34.906606
24.987624
22.524873
12.489995
7.620390
-4.448828
-4.422451
-4.343322
9.541685
-1.928530
-6.293010
-1.831293
4.450029
-3.710287
0.280007
-1.567943
-8.458078
-3.042084
3.254878
-1.203305
2.761561
-3.356272
0.154142
-1.718865
0.890567
-0.551008
0.602762
0.058967
1.631601
0.744033
0.030514
-0.217044
-1.077402
-1.966347
-2.227437
-1.155888
-2.035093
-1.574834
-4.345924
-0.134503
-4.232734
-0.163594
-1.403964
-5.510356
-0.204321
2.805443
-3.513091
-7.285374
-16.718342
-7.899803
9.662290
59.128617
80.332018
97.719734
109.422651
98.807100
103.691955
110.362944
92.355103
85.774181
58.816385
46.931632
39.389567
24.529551
29.479867
61.749609
81.470505
83.074210
75.640026
60.463159
55.006413
42.300362
25.230886
22.628395
8.633348
-4.658884
3.891843
-2.325569
1.672777
1.590344
-5.572456
-5.276442
-1.786619
-3.114335
-1.536007
5.927575
-2.392536
-1.126405
2.410989
-1.504168
-1.813083
-0.066738
0.289519
0.375223
-0.011979
-0.036464
-0.419534
-0.771401
-1.443690
0.070691
-1.112207
-3.325693
-2.266837
-3.417343
-2.801404
-0.923749
2.563217
-2.395861
4.324683
0.217592
-4.641941
1.965765
-10.630694
-9.114010
23.781276
51.143024
79.663207
101.476408
101.730427
100.251486
103.495532
101.104603
87.739092
85.728155
54.438083
59.526118
39.994985
42.269049
25.035723
20.119743
20.003891
12.550982
5.187462
-4.457620
2.712430
0.341733
2.636406
-1.916375
0.320698
4.582258
0.301732
-1.711773
-15.193187
-1.557814
1.987486
0.238972
0.220350
-6.847015
-1.097965
-3.369805
3.303163
0.134141
0.885137
1.368066
1.113779
0.453429
0.850024
0.274630
0.025429
0.295497
-0.469422
-1.375151
-0.933796
-2.213895
-0.092749
0.637344
2.417705
3.591183
-2.205777
2.111717
-7.547302
3.794454
-0.206374
-3.285952
-1.889019
-10.771533
-7.607218
-2.182747
5.648028
55.409129
86.506183
87.108129
105.714568
105.292506
113.375073
115.514226
107.509470
88.234900
59.265365
51.910147
44.526696
22.061126
22.019462
9.594625
21.956966
11.969362
-10.162463
-2.780981
-2.756729
-2.713613
1.990444
-4.916308
-7.037723
-4.663931
-4.512505
-6.401294
-2.242031
-11.479996
-10.887201
-3.568614
-0.225882
-6.007751
-5.529862
-2.599485
0.946969
-1.110237
12.196930
18.701371
15.924544
13.647145
9.368254
4.736476
1.494772
-0.759119
-2.429679
-1.069062
-1.516788
-1.937103
-3.608330
-0.605704
0.116900
-5.315347
0.145866
1.251682
-2.250790
-6.340681
-1.191151
-4.303607
-7.917221
1.979341
2.079801
4.027912
12.062191
61.383865
83.839950
97.706747
95.730376
116.269424
119.421671
121.846477
99.485834
73.460550
62.051152
52.080019
47.335749
34.772479
27.477100
34.940138
17.581823
12.526587
10.052672
-9.301751
-2.031844
0.340698
-1.967019
2.587533
-6.286243
-3.974052
-7.985983
-7.702727
0.278628
3.926197
0.253110
-1.397779
6.279235
1.612796
4.063711
0.171039
7.537487
2.900520
0.111727
2.643371
0.610908
-0.334251
0.312242
0.815800
0.048789
-0.448631
-0.464374
-0.706656
-1.369063
-2.243154
-1.372932
-1.589977
-4.370135
-0.136556
-3.256150
-2.432917
-1.420133
-0.193711
-7.336017
-7.844454
-3.543376
-9.079229
-9.418187
-7.919309
9.593763
49.219437
74.047883
95.747398
93.941121
103.312764
105.634399
106.168181
100.154936
71.415964
66.402503
51.910147
32.087433
27.044037
32.026948
22.040294
19.477119
2.113087
4.537575
-2.789066
-2.759423
-14.574101
-12.057216
-11.754575
-7.045124
-4.658884
-2.409106
-4.361079
-4.189462
-7.704746
1.503891
-5.239441
-1.783924
-5.978493
-6.791263
-2.579295
-0.160513
-2.064446
-2.582719
-0.098909
-0.083166
1.276011
-1.021247
-0.584627
-0.185008
-0.142100
0.184630
-0.523133
0.450714
-0.423385
0.697792
-2.023237
-0.690786
0.131727
-1.833163
0.160004
-1.033141
-1.110120
-3.965273
1.718687
6.760741
1.984771
3.905854
0.275179
19.865041
63.567873
86.221056
82.285492
58.197208
45.892391
44.885000
40.927819
32.002552
27.239317
27.371419
2.831896
0.357595
10.268858
0.356216
12.648560
19.907347
-4.523561
7.598021
-2.060204
0.345871
0.338974
-1.962968
-6.448644
-4.083953
-10.391352
-3.842169
-5.704309
-5.501309
2.096092
-1.488938
0.236213
3.275221
-2.624457
-1.108094
0.170694
4.421996
1.067052
5.589597
2.672851
-0.441617
0.469720
0.850024
0.462294
0.074563
-0.578337
-1.286801
-1.355645
-2.227437
-0.606319
-1.352742
-4.539948
-1.807021
-4.769622
-5.278058
-4.681365
-8.808931
-2.851863
-4.440204
1.298815
-6.846496
-7.246362
-3.932037
-6.009076
17.457246
55.282769
80.064839
102.297309
95.883217
106.263441
104.104660
101.129487
104.957338
78.841079
64.112505
56.780814
37.045117
31.966463
22.102790
19.514078
24.390442
11.957940
4.546301
-7.688953
-0.349433
2.026634
-5.012212
-11.778786
1.916053
-4.653836
1.785368
3.747862
-8.055848
-2.131547
-5.579856
-0.243679
-1.775840
-0.210481
-5.510356
1.033422
4.262262
-0.141005
-1.756546
-0.784172
3.388390
-0.943891
-0.366486
-0.027722
-0.064674
-0.264675
0.024139
-1.078199
0.056553
-0.425411
-1.116603
-1.301238
-2.266837
-2.544271
-6.791996
-3.126205
5.001769
-2.413445
-2.554119
-1.282310
-1.389676
-4.939674
2.074371
-1.602381
10.111529
55.210726
75.829196
95.228447
102.714915
109.563611
108.293681
98.412948
99.778440
81.006900
63.775215
59.468881
34.873074
32.376486
29.942527
29.856154
12.672954
10.101805
-6.922311
-2.050076
-4.391679
-6.678711
0.334146
4.826374
-6.286243
0.308973
4.434772
2.286152
-7.392060
-23.524019
-43.186587
-34.160110
-27.045193
-22.361909
-8.806846
-13.966306
-6.217430
-9.110520
-1.441913
-1.195732
0.075174
-0.738541
-1.059924
0.160194
0.037282
-0.201902
-1.705572
-1.006446
-0.923701
-2.233401
-2.652773
-2.338507
-3.491518
-1.983685
-5.302270
-9.256083
-5.090984
-4.181192
-7.275489
-4.832422
-10.135362
-5.513253
-7.568206
-5.986875
11.625207
42.980424
82.819890
96.056926
103.458517
106.155559
102.033455
113.430960
100.539408
81.238616
61.749609
54.347679
37.045117
27.044037
22.040294
14.572830
16.997581
-0.358674
-5.254494
-2.775592
-7.585348
-2.713613
-7.326337
1.952243
-4.785072
-4.663931
-6.615904
-4.361079
-4.184414
-2.123462
-2.021062
-8.546581
7.560799
-0.208428
-2.831673
-5.003209
-3.448558
2.733350
-0.937773
-1.468835
1.029680
-0.503918
-0.358402
0.340318
-0.056590
-0.114298
-0.149907
-0.527529
-1.130035
-0.431488
0.697792
-0.615833
-0.698889
-1.705677
-4.890725
-2.044175
1.395584
2.837847
0.202764
0.220350
0.238282
1.979341
-7.008294
-3.481691
14.007868
57.511578
86.221056
101.699924
94.011296
102.950593
112.987474
120.058369
94.835693
85.978091
69.254081
49.665023
34.940138
32.376486
22.546553
22.481514
19.965273
7.665128
-2.068307
-2.056153
-6.766677
-9.045907
-4.259796
-6.435110
-1.879911
-1.821164
-3.820189
-5.704309
-11.282969
-3.402562
0.252765
-1.399805
0.221385
0.205522
-2.400257
0.170694
-0.905518
3.773437
-2.219470
1.388409
1.129036
0.453429
-0.518737
0.931599
0.020343
-0.496331
-0.229054
-1.013847
-0.495834
-1.679877
-2.005492
-2.353308
-6.051937
-4.818044
-1.174911
-2.417774
-3.855577
13.122614
30.850149
41.130380
36.248925
33.313474
21.642741
18.826083
31.444513
73.978974
86.986773
104.705877
112.248696
108.580657
113.375073
115.626812
107.303118
86.102190
61.749609
51.812018
34.485963
21.998630
24.552736
19.551036
16.981454
14.435091
9.413252
-0.353540
4.459040
2.022613
-2.667802
-0.331294
1.908011
-2.487254
-2.403716
1.729072
-6.149682
-3.987560
-3.785658
-1.899798
-4.884224
-3.079002
-1.509060
1.029401
-3.463359
1.780125
2.337115
0.579038
-0.081112
-0.514697
-0.353012
0.725491
-0.053895
-0.255844
-0.329706
-0.253221
-1.136802
-2.439609
-2.384830
-2.050303
-1.503458
-3.499578
-0.856899
-6.453359
-3.457772
1.496045
-2.584892
4.749695
-3.033292
-3.204738
2.096092
-3.486087
15.968357
51.143024
84.410937
95.542387
105.276186
121.193901
108.184293
107.552334
97.543642
78.562809
66.664700
54.543075
37.481804
32.376486
22.524873
17.514070
17.531008
7.672584
0.350699
-2.052101
2.715145
-4.325738
-1.967019
-4.176271
-6.265943
0.310008
0.299663
-3.688307
0.278628
-3.393770
1.984771
3.504080
0.221730
-1.195202
2.751389
1.357572
1.210955
3.842223
-0.666477
-0.553034
-0.447694
0.058277
0.040001
0.021380
0.040686
0.082433
-0.031487
0.275445
-0.493139
-2.760086
-3.947152
-0.862320
-2.641921
1.723406
-4.252240
-2.422821
-2.644913
-4.166391
-5.900470
-4.795420
-8.510264
-7.304880
-5.764865
1.636587
17.561406
57.406998
82.271414
102.407543
103.026991
114.829125
108.744719
100.834075
90.435802
78.616247
59.096998
54.604763
44.526696
32.147919
19.514078
17.110468
46.621120
43.980614
46.221891
23.996300
23.671712
16.191244
6.655405
6.527804
13.030149
1.847695
-0.305283
5.809208
-0.282695
-5.831468
-9.079229
1.417437
-9.499191
2.652736
3.727296
1.021359
-0.158460
-2.974937
-0.117048
-0.099251
0.476500
0.371952
-0.656181
0.483541
0.147749
-0.131882
0.025518
0.041725
-2.762295
-1.461602
1.312123
-3.521322
-1.507854
1.037185
-0.862976
0.161039
-2.259582
-2.431029
-1.191151
-2.817884
-4.696074
-3.231115
-7.017431
-5.413342
23.982812
55.275074
88.916103
95.542387
106.938650
105.449604
107.527968
110.481432
95.299665
78.562809
64.147082
42.065832
44.734169
27.424260
34.839543
12.672954
17.581823
12.563179
5.177291
-11.680202
2.717860
5.009461
2.611969
-4.176271
-1.881937
-3.952071
-3.828981
-9.654867
4.094027
-3.398166
0.252420
-1.399805
-1.298516
-4.039706
0.186212
-1.004780
3.325532
-0.785997
-1.446309
-1.833770
1.647853
2.913366
0.309526
0.300059
-0.012155
-0.303414
0.392675
-1.345892
-0.490444
-0.078374
-3.874860
-4.597782
-0.121840
0.796178
2.907962
-1.288090
1.055538
-0.192342
-0.204663
-3.275856
-3.548424
-5.535454
-7.636476
-0.278246
23.539269
63.589888
80.866378
95.953750
101.096658
115.532879
101.630161
106.684062
90.435802
88.487964
61.749609
44.358671
39.538770
29.591427
29.563537
19.606474
19.458640
16.868567
-0.356620
2.070866
-0.349091
-7.444742
-2.659718
-9.450505
6.359908
-8.953110
-8.660525
-2.322874
-4.169272
-2.120768
-9.079229
-5.209839
-1.775840
-3.068907
-1.511754
-1.371627
-1.239585
-3.930396
-2.530916
0.573007
-0.080428
-0.490444
-0.044492
-0.871606
-0.085808
0.084169
-3.218008
-8.020970
-11.889361
-13.813893
-14.702291
-9.293816
-12.966149
-6.223288
-4.902233
-7.571938
-9.607457
-1.118223
-3.985573
-1.290413
-4.675774
-3.222323
-8.814813
-9.183056
17.993883
61.598244
73.981148
95.751680
107.851680
105.668380
110.975852
102.991975
99.680904
68.853769
66.664700
54.543075
49.760533
35.040733
32.469970
24.891425
7.680041
-4.523561
7.620390
-6.868178
0.344491
-11.357990
-11.162361
-4.180667
-1.877885
-1.827241
-5.866709
-5.684009
-3.543236
0.265179
1.992916
-1.391701
0.221385
-2.602476
-1.099991
-1.006806
0.152073
1.042616
0.113106
0.093106
-1.481902
1.260123
-0.237015
0.019656
0.045772
0.084443
-1.077402
-0.046888
-0.493139
-1.155888
0.546869
-1.589977
0.709724
-3.852373
-0.148193
-4.681365
-1.412049
-1.525228
-5.871212
-3.280904
-3.563566
-0.254631
1.570239
-5.986875
11.652755
63.662479
86.890655
102.738245
101.096658
111.235921
108.744719
106.477709
93.067582
71.348078
59.433733
54.450512
29.591427
27.069574
29.591427
14.559056
16.949201
7.024777
2.090971
-5.198971
-5.163638
-5.087925
-9.645562
-7.178330
-4.790120
-0.314182
-0.303914
-8.367939
-2.220473
-2.123462
-5.542855
-6.866002
-1.765061
-1.638408
-1.509060
-1.371627
3.089290
-1.085984
-1.711118
0.570996
-0.079401
-0.062631
-0.350317
0.142749
-0.005476
-0.414273
-0.712708
0.043105
-1.150335
0.075519
-0.526699
0.105520
-2.368337
1.056191
-1.885916
-4.303659
1.401015
0.192074
0.205522
-5.893546
-4.696074
-3.239907
-5.196808
-3.503672
19.961239
57.378141
93.135514
91.413747
107.281036
107.511349
98.407148
67.652831
36.727859
10.131285
-7.017044
-4.554333
-9.475359
-4.567522
-2.106797
2.818320
5.279006
0.354492
5.197634
0.347940
-6.800511
-6.658411
-13.447967
-1.926504
-4.079557
-1.817112
0.300008
2.280722
-5.481009
-1.569969
0.252075
1.873450
-4.357740
-1.203305
0.187591
1.343997
0.154487
0.134486
2.445683
0.738519
2.142212
0.879834
0.595032
0.294973
0.115853
-0.621713
-0.877756
0.597738
-1.354262
-1.679877
-2.643020
-5.245012
-0.948552
-4.793833
-5.253847
-6.925590
-2.634818
-5.490851
-4.432804
-1.762366
-5.195039
-9.018701
-13.112531
-5.986875
17.644734
59.332275
82.819890
91.676293
94.236533
112.755904
101.730984
100.932546
100.058818
69.071890
54.296262
39.464169
29.479867
32.026948
17.045961
26.941888
24.390442
16.916947
11.877992
-7.644551
-5.168686
-0.342931
-9.616303
-11.790892
-0.323080
6.171864
-2.406411
-4.340888
-6.134882
1.584313
-2.012978
-6.866002
-6.397865
-4.506807
1.113844
1.019348
-5.604911
0.804220
1.487801
-0.096513
-1.176078
1.202137
0.549745
-0.368471
0.087306
-0.310668
-0.534568
0.661147
0.060691
-0.949552
0.714083
-3.567352
-2.341270
0.134831
-4.971278
0.162763
-2.285959
0.192074
1.604651
1.737693
-3.046480
-10.214349
-5.203575
-1.620613
21.955260
59.347517
76.257609
100.089614
105.164428
112.072105
113.101603
105.483818
102.703095
76.266681
57.006131
44.777183
42.390979
32.501131
39.765349
32.376486
19.926656
17.429379
5.192548
2.745011
0.345871
0.338974
-1.962968
-6.401277
-8.479396
0.310353
-1.754314
0.290697
2.191122
9.416286
3.727853
3.504080
10.840430
7.257370
4.056254
-10.368914
-30.711464
-28.159135
-16.992390
-13.987638
-10.213139
-4.322744
-1.568236
-1.154384
-0.043961
-0.288613
-0.459327
-0.696561
-0.903510
0.990413
-2.012892
0.631312
-2.649322
-2.900933
-2.185587
-5.774390
-3.825976
2.465125
-7.239172
-3.270809
-0.240257
-7.295127
-7.587712
-13.700914
11.583885
53.467639
84.670227
95.437870
105.494100
94.291740
106.689688
108.061563
92.800403
76.511121
56.673274
54.244845
29.647208
34.453368
17.078215
7.098651
9.558350
-0.358332
-0.355936
-5.204018
-5.143448
-9.791855
-7.304135
-7.141328
-7.030323
-4.628598
-2.395632
-12.390878
-11.899291
-5.809267
-2.007588
-10.178737
-0.223829
4.063088
-1.498281
-6.185981
-5.568594
-1.069815
-4.115917
-2.064695
0.458405
-0.913606
-0.910242
0.788059
-0.048505
-0.070902
0.027587
0.344823
-0.352483
-0.980325
0.716798
0.106899
-1.543022
-0.783972
0.148280
0.163797
-1.049347
0.191384
-8.243646
-2.817884
-1.416011
3.738024
-3.389374
-3.521256
14.143374
63.789364
90.718850
99.433289
109.043130
111.955606
110.193545
109.934494
107.053518
71.438105
66.664700
47.199596
39.918440
32.438809
32.314164
20.061817
22.438156
10.121458
2.772163
-2.052101
-2.029818
0.340009
-8.872299
-1.920426
0.318974
-1.821164
6.479568
-7.675315
0.279317
0.265524
3.707510
0.237592
-5.884408
-1.207357
1.479754
2.522531
2.268243
1.045331
-0.662426
1.378238
2.732186
1.611572
1.439277
0.439925
0.078613
-0.206949
-0.245222
-0.046203
-1.765265
-3.866516
-1.998092
-3.861699
-1.801973
-4.818044
-0.148535
-1.293480
-8.842553
-1.517144
13.934083
25.695482
38.015185
27.900944
16.269820
16.936445
33.467573
75.868961
99.541455
102.297309
107.633138
124.169089
106.267573
105.858653
97.609862
76.148165
66.655224
56.727044
37.010169
26.992962
12.060731
24.483182
16.965327
9.458595
2.084940
-5.198971
-2.740560
-9.772349
-4.986974
-11.730364
-4.764882
-0.312813
-6.564101
-4.350983
-2.225863
-0.269348
-9.067123
-0.241283
-1.778535
-1.641102
1.117865
-0.173519
-0.157775
-1.077900
-3.345225
-0.097198
-0.078717
0.798439
-0.344928
-0.026011
0.040211
0.010345
-0.347290
-0.257272
-0.346406
-1.454836
0.090002
-2.057070
0.118279
-1.683697
-0.852848
0.161039
-2.246394
-2.417841
0.202074
-1.298516
-1.393727
-6.697626
0.264489
-3.494879
25.863796
65.380107
86.708732
95.542387
104.829153
111.839107
103.181592
105.379172
99.583369
85.811467
51.879518
51.879518
37.266391
32.314164
27.424260
37.266391
12.550982
0.355526
7.605477
7.516001
-6.753144
2.671702
-1.958916
0.326215
0.317594
0.309318
-1.764442
-1.695566
6.024731
-5.196808
5.420766
3.473565
3.244707
0.202419
2.731046
1.333136
-0.897414
-0.773843
-2.185637
-1.178148
1.098521
0.828977
0.544175
0.279716
0.007456
-0.014717
-1.373551
-0.385349
-1.823782
-1.716879
-0.094802
-0.862320
-4.394347
-2.937935
-3.270950
-1.306953
-2.665104
-6.876003
-3.048717
-6.407618
-6.905013
1.511933
-5.772265
-0.278246
15.707354
59.400160
87.371245
91.479351
94.827358
105.831914
106.584159
118.273013
95.709079
76.148165
56.834583
49.420890
34.616345
22.061126
21.956966
12.060731
2.117108
7.044924
4.528849
-7.637151
-17.214400
-12.129850
-23.678079
-0.330267
30.867870
45.090194
45.658220
38.059868
17.186429
16.353148
13.767034
9.655533
9.035706
5.477460
5.033097
3.384787
1.989552
-0.135872
1.465986
-0.754530
0.462426
0.780986
-0.041754
-0.023957
-0.095903
-0.158259
-0.160036
-0.893201
-0.773709
1.662766
-0.540880
-2.097670
-4.871245
-0.792075
-3.947305
-4.303659
1.406445
0.192074
0.204488
-2.844260
-1.405882
-6.715901
-1.553763
2.172116
14.075621
65.608708
88.716292
89.244645
105.052669
98.491829
105.840058
107.445317
104.321563
81.164042
59.411645
51.979768
37.194587
32.314164
20.042508
22.438156
19.984582
2.783023
5.182377
0.348974
-9.164692
-4.334530
-1.956890
-4.176271
0.319318
-8.205277
-1.766468
-1.697592
-17.001661
0.264834
3.712596
0.235868
-1.298516
-1.187099
1.474324
1.343997
1.205524
1.973270
-0.662426
3.293260
2.683397
0.056898
1.646169
0.830368
0.016291
-0.232187
-0.239833
-0.701609
-1.823782
-0.611708
-1.388075
-0.843457
0.719777
-0.135872
-5.302270
-1.293480
-5.110490
-4.181192
-1.622239
-3.296047
-10.251030
-5.505853
-7.616971
-7.909556
9.685132
53.345984
83.002716
98.352907
94.138062
101.422082
98.963130
110.902352
87.981836
76.075574
61.632659
51.910147
36.975220
29.563537
24.529551
34.420772
14.503961
7.004629
-5.249446
-0.353540
-2.745950
-2.700139
-9.626056
-9.450505
-9.235943
-13.229467
-4.472125
-14.390162
-9.926624
-2.109989
-0.254631
-1.878240
-3.285952
-4.484606
1.113844
-2.543962
0.920832
-0.136214
0.669513
1.853574
-1.150840
-0.060920
-0.610753
0.136717
0.087306
0.188173
0.230787
-0.263350
-2.470318
-10.011580
-16.118793
-17.360013
-20.738989
-12.709904
-8.006214
-9.886151
-8.449373
-11.691266
-4.032940
-5.911820
-6.332135
-10.214349
-1.559840
-1.612510
23.896440
55.532467
78.455499
91.513652
104.829153
110.020126
107.856131
108.087420
95.206870
83.450991
66.471655
52.029893
34.906606
29.856154
12.672954
10.200071
17.514070
7.672584
7.605477
-4.444432
-21.052674
-9.018495
2.636406
-4.149895
-10.667535
-10.299292
0.299318
-1.689489
0.276214
-7.017431
-15.322484
-1.381573
-1.290413
4.376877
-1.087837
-4.477267
2.247900
1.037185
2.378576
0.714083
-0.958344
0.056553
-0.483568
-0.103314
0.000000
-0.617388
-0.031829
0.623917
-1.804276
-1.155888
-0.095487
-3.873804
-0.970110
-2.029113
-5.387009
-1.315038
-1.420133
-5.559121
-3.053764
-1.767756
4.768252
5.030170
-2.112683
-11.754707
15.707354
57.472531
84.857757
100.761476
94.433475
103.840409
111.446745
96.390911
97.609862
68.875291
69.071890
54.193428
32.057191
19.532557
29.479867
19.477119
26.839738
9.494869
-0.356620
-2.780981
2.052771
-7.422541
-16.642828
-2.605823
-2.549233
1.847695
-4.472125
-6.334691
-6.120081
-9.502926
4.996591
-5.180238
-0.223144
1.210351
6.315894
2.207705
3.075858
-2.003875
-0.116021
0.560943
-2.233401
0.776623
-0.326065
0.138728
0.047994
-0.072928
0.028966
0.363829
-1.644710
0.605477
1.983389
-0.627988
-2.368337
0.134486
-3.974717
3.534310
-3.525439
-2.466198
-1.205331
-4.357740
-3.072856
-3.239907
3.921111
0.276904
18.123960
61.598244
86.903802
98.348851
107.623422
119.778655
117.918715
119.582891
107.262811
82.803457
69.187363
52.130144
42.187762
-9.484497
-51.363754
-50.968268
-55.910324
-50.819961
-47.912330
-35.424009
-28.016915
-27.651599
-15.647588
-13.101012
-6.272710
-6.076476
-1.748236
-3.692703
-7.346373
-1.549711
0.251386
-4.641941
-2.795904
-5.381858
-2.360692
1.335851
3.303163
-0.775869
0.112417
-0.536828
2.671200
1.237754
0.037242
0.294973
0.052194
0.187611
-1.113719
-1.394657
-0.938843
-0.078717
-2.711290
-3.849593
-1.812069
-2.937935
-5.326481
-3.581765
-5.129996
-1.530618
-5.871212
-3.311189
-0.241968
-2.021062
-7.626723
-2.198915
17.707230
57.472531
78.470182
90.062548
100.780071
103.523822
111.336511
99.193757
95.343428
76.220756
54.193428
42.032733
34.518558
34.518558
22.081958
14.545283
12.003625
-2.816013
6.971050
6.944187
-14.776519
-12.141955
-7.318936
-4.880976
-4.780025
-4.623551
-4.492315
-8.358187
-11.957125
-2.120768
-7.226857
-1.886325
-6.349101
-3.048717
-4.084988
-6.137559
-1.231500
1.723406
2.269957
-2.072095
0.452374
-0.468886
0.239255
-0.185938
-0.004449
-0.070902
0.228072
0.045518
-0.352483
1.647853
-1.173752
-2.111203
-3.243734
-2.611937
-3.947305
4.677489
0.177936
-3.809639
-2.606872
-7.433902
-4.716374
-4.993808
-3.389374
2.177546
26.019602
63.789364
82.401268
93.480303
107.509294
107.958382
113.329860
117.780560
99.875975
83.289108
76.488172
49.665023
39.803622
39.841895
25.011673
17.598761
17.531008
14.946628
10.023192
5.146776
0.345181
-4.316945
-4.246608
4.795860
2.500648
6.665977
6.457199
-3.675118
-1.626690
2.079801
-3.200342
3.473565
-2.795904
-6.812492
5.267089
0.168970
-17.659510
-20.749665
-19.673507
-14.928480
-8.470172
-5.845314
-2.830368
-0.644425
-0.020300
0.196337
-0.256001
-1.043448
-1.823782
-2.252907
-2.662526
-1.605119
-5.176119
-1.998828
-4.261992
-8.069250
-6.379672
-0.192342
-8.761811
-7.904982
-3.578709
-12.574581
-9.430292
-7.948567
7.644866
51.458007
82.728478
91.479351
105.824802
108.029486
113.487660
110.578707
90.175680
81.084023
64.173333
46.931632
39.389567
32.057191
29.451977
22.019462
16.949201
2.099013
2.088961
-0.351829
-5.153543
-5.042497
-9.635809
-4.886023
-4.764882
-8.933604
-4.477172
-4.335841
-4.159177
-2.118073
-5.513253
-3.513091
-3.301094
-5.871212
1.107813
-0.171123
4.071821
-2.923134
-0.891962
-0.738361
-0.600929
-0.471581
-0.336844
-0.021561
0.024127
-0.081031
0.028966
0.984238
0.905263
1.139207
-1.827003
0.855271
0.958446
-1.732053
0.148624
-2.105720
-1.059476
-2.461802
-6.881538
1.745838
5.204532
-8.481093
-8.860843
4.073684
24.069185
57.645016
91.434782
100.089614
109.276128
117.118106
124.091469
116.183079
87.996140
86.061403
64.271038
59.239935
42.350335
22.524873
22.503194
24.915475
14.975764
22.264721
0.352768
5.162034
-4.396075
-11.323467
-4.242212
-4.163083
-6.238877
-8.196140
-3.793813
0.288973
-1.628716
-14.280851
-1.472732
1.865304
-1.290413
0.202074
-2.365088
0.168970
1.208239
-3.517853
0.882422
0.091726
0.581041
0.453429
-0.218783
0.019656
0.015257
-0.568965
-0.464374
0.289519
-1.361663
-2.252907
-2.691785
-3.813276
-1.817116
-2.019018
-3.270950
-2.412726
-5.139748
-8.154557
-0.206374
-7.965510
-10.265488
-2.021062
-7.636476
-9.866095
11.694077
67.789026
126.004555
153.663627
164.890859
162.373971
166.318279
157.312797
145.112939
113.383631
79.215799
59.377611
44.526696
41.993080
27.018500
24.529551
4.594294
11.957940
4.533212
2.076897
-9.977159
-12.154061
-2.643549
-2.603128
-20.333119
-4.618503
-4.477172
-2.304011
1.648650
5.251793
-0.253604
-8.461841
-3.285952
-5.841953
-2.771102
-4.925186
-4.398532
2.619181
-0.894657
-1.377980
-0.603624
0.347825
-0.336844
-0.022588
-0.004791
-0.081031
0.427203
0.671319
0.480581
1.662766
0.733089
-2.914792
-2.395404
1.061622
0.150004
0.166211
1.414590
0.193798
0.205522
-4.378040
-4.723141
-6.743313
0.266214
0.277593
14.126436
59.623873
91.127954
97.385695
103.043078
98.696381
106.589179
112.763982
100.266115
78.562809
66.664700
54.490579
27.503520
27.450680
25.011673
17.598761
10.141112
12.465601
10.003538
-2.052101
2.712430
0.339664
-1.958916
-4.171875
-1.873834
0.308973
-1.762417
0.288628
2.177546
2.085231
-3.195946
3.478651
0.219661
-2.580496
2.746304
7.152821
-2.970571
0.131383
1.607096
0.090347
3.204930
0.056898
0.579775
0.284802
0.015257
-0.340416
-0.261391
-0.731894
-0.062973
-0.078374
-0.732972
-0.854236
-1.812069
-0.136898
-0.149904
-2.458154
-10.099287
-4.181192
-8.718436
-4.847223
1.421458
-3.775563
-2.115378
-2.198915
23.595050
57.734663
89.116053
83.360054
103.674281
104.156995
106.373102
101.424900
90.695924
76.075574
61.574184
42.072387
27.044037
22.081958
17.029834
12.072152
4.589931
-5.269637
-7.696354
-10.035676
-12.335646
-9.801607
-14.270474
-9.430999
-6.993321
-13.200550
8.007612
25.978422
48.300357
49.722902
48.756628
41.107931
31.940932
21.038831
15.479022
6.955841
7.386046
3.582114
4.572949
1.887153
-1.135698
-0.893415
-0.326065
0.279235
-0.088804
-0.076979
-0.767532
0.355684
0.480581
0.075864
-1.164960
-2.832557
-0.702941
1.053476
0.148969
-2.074947
-1.047321
-1.126326
-2.598080
1.759414
-3.055272
-5.007341
-5.203575
0.276559
20.033388
69.690886
88.816198
102.482232
106.824521
107.511349
119.785392
114.813534
99.583369
83.693817
64.333016
44.648142
32.376486
34.839543
19.965273
22.416476
19.907347
12.502193
5.197634
