701.006646
697.533787
389.177856
159.105630
76.964575
30.023779
14.995840
11.069715
2.952608
-4.797590
-0.506170
-0.438333
-1.010572
-2.010154
-1.465737
-0.979950
-0.636549
-0.018264
0.089304
-0.239106
1.089506
1.498071
-0.745040
0.997228
1.920591
-1.226717
0.519699
-0.473908
20.224961
67.990169
88.639618
112.901384
135.903470
161.128028
163.839733
155.629651
153.634636
155.504467
155.192226
148.778374
146.669872
142.949212
154.358761
153.150898
133.207179
115.505488
97.779285
81.982264
84.756484
65.960081
57.830844
45.154360
57.718003
40.247288
32.433734
27.786134
15.525388
15.446898
10.547358
-1.005583
-5.321367
3.319131
-0.912513
5.021672
2.906100
-6.084723
4.281572
7.089744
0.815345
3.468073
1.856779
4.875563
3.557919
4.775717
3.751399
3.610555
0.225380
3.597806
0.973280
0.266057
-0.923254
-0.728681
-2.332355
-1.095406
-4.314552
-2.144164
-6.330698
-7.137157
-4.078489
-6.317830
-3.769039
-6.531953
-7.186458
-6.310924
22.391860
66.634363
118.514213
145.752285
143.303533
149.035675
144.662566
148.872769
149.943951
144.249131
136.870745
135.423382
129.648468
137.845816
122.713567
107.426850
93.562036
77.384751
63.399471
61.253627
57.808682
50.797585
43.549976
40.782313
23.246519
30.335652
20.208202
3.433752
-1.301952
3.321225
3.222339
-5.573328
-3.295342
-5.218224
-5.001551
-4.760802
-9.869925
-2.595997
0.701072
-2.251817
-3.424648
-4.338583
-7.337333
-1.526842
-3.885297
-1.835707
-0.337881
-0.765252
-1.281473
0.104213
-0.153783
0.011163
0.174887
0.876712
0.905247
0.740479
-0.855929
1.071648
-2.741015
-12.700306
-26.890185
-31.277043
-34.207136
-31.915131
-22.968162
-12.665944
30.221422
84.321830
113.430349
122.469341
134.163280
137.707977
140.930616
129.388666
127.070241
137.943666
136.753895
126.517244
112.741872
96.831811
85.418644
78.153549
68.972266
48.993385
46.220998
43.729645
33.472652
33.180456
18.365003
15.870746
8.520279
8.315996
8.230878
-3.288571
1.219703
-5.245180
-5.051782
-2.883131
1.056634
4.624098
-4.190283
2.485627
2.314461
4.902778
-1.801957
4.017554
0.560798
2.220301
1.871659
2.093895
2.607355
1.915608
0.507672
0.502338
-0.338281
-1.050397
-1.266478
-0.981050
-0.266131
-5.040365
-4.556870
-3.616975
-5.777184
-5.419296
-7.012945
-2.985282
-4.480969
-7.552980
-5.142645
-7.051492
-9.320142
-6.290108
17.390356
61.872762
96.037443
116.419837
124.815446
117.161278
115.081165
113.870594
111.613447
116.249842
98.578918
89.688839
67.800076
60.562147
45.654946
33.438313
40.588481
23.424653
15.894396
8.416499
10.848100
-6.181218
3.474670
-8.400769
-5.928432
-10.367947
-3.456448
-1.194978
-13.732397
-7.169550
-8.854613
-4.736727
-6.264981
-5.921579
-5.511173
-5.125893
-2.057758
-4.363710
-3.928176
-4.443406
-1.296168
-3.176928
-1.462547
-0.256999
-0.186552
-0.535665
-0.117168
-0.055445
-0.066326
-0.883399
0.204168
-0.217163
-1.470995
1.792144
-0.359442
3.191913
0.552844
-1.590573
-2.983013
-3.217434
2.187947
0.849815
7.504222
2.723771
10.163363
65.719383
94.204179
114.177582
126.250242
125.732764
118.082761
119.417027
124.125376
123.986241
111.738544
94.660632
78.077966
63.353800
55.970004
40.842075
1.365537
-30.828678
-45.424822
-57.624918
-49.761991
-34.951794
-24.998881
-17.498981
-7.975362
-12.277073
-7.645120
1.183907
-9.202984
1.099058
-0.852606
-2.637094
-4.190283
-2.339078
0.827277
0.757011
1.960967
-0.506001
4.635602
2.226417
0.403032
3.339011
1.668306
2.677853
0.800106
0.458107
-0.084262
-0.850856
-0.650021
-1.652861
-3.120297
-3.846307
-3.091065
-3.563311
-2.250999
-5.406206
-1.654994
-6.466503
-3.220012
-6.182130
-10.860585
-8.613277
-7.641800
-0.974508
-2.848640
42.856455
76.576436
110.232385
115.503381
108.159581
113.676521
104.766265
119.027403
102.652938
98.197568
82.621675
67.605992
45.524504
45.524504
28.329979
25.854896
23.424653
18.377603
15.727247
8.384003
-8.593409
1.070556
-10.732865
-12.919915
-10.335749
-10.099626
-7.646962
-9.498585
-7.144423
-4.917289
4.521180
-0.969289
4.036768
-3.930220
-3.665396
-8.573094
-4.271578
1.589005
1.377592
-1.274199
-1.083801
0.828601
0.198953
-1.481135
0.086318
0.144170
0.025190
-0.072744
-0.120884
-0.564844
0.777689
0.332767
0.396403
-0.361582
0.503790
1.585146
-0.501721
-1.788095
-3.258458
2.195389
0.849815
-0.741350
-6.084723
2.850285
39.042590
78.924558
101.964593
124.551240
126.284223
117.705098
128.150363
121.886873
117.352726
104.175906
77.397713
67.784227
51.006461
46.132112
38.747246
28.671748
35.907584
23.502245
16.027726
13.502374
-1.078327
3.720999
3.650300
3.590764
5.761773
-5.379972
3.330294
1.140157
5.082838
2.961915
-0.811954
2.667956
2.500511
3.798366
-3.346366
5.682703
1.771196
5.640401
1.358165
3.304912
3.325708
2.137831
2.339012
-0.550890
-1.723564
1.035116
3.860765
5.925831
7.150702
9.396755
3.722875
2.347846
-0.431810
-3.115739
0.433696
-3.769039
-4.137567
-7.068647
-0.747514
-5.134269
-2.420246
-11.029169
-6.306859
-2.859625
27.684525
70.517820
108.664306
105.595453
110.941626
112.005773
109.041193
124.240759
104.661813
98.197568
81.990975
62.679704
50.604805
38.375642
28.383941
30.863738
25.928767
10.973875
1.094767
-1.355440
-6.187237
-3.716413
-15.447016
-15.107182
-3.522354
-7.856353
-11.938159
-9.455654
-7.102545
-10.668421
-8.350169
-0.961462
-2.533752
-5.427416
-6.439719
-2.024805
-1.845391
-3.827669
-0.519216
-0.444856
-0.370496
-0.849466
-0.245258
-0.165679
0.077897
0.295278
-0.027814
-0.445401
-0.756009
-0.589101
-0.232140
-0.279210
0.400381
-1.992582
0.509093
1.596309
0.627086
-1.801957
-0.595861
-0.633303
5.507113
-2.439572
-2.546996
-4.512613
23.876110
67.112932
105.233325
122.837602
115.187341
104.712777
112.467875
119.886067
115.163755
94.383577
90.187901
58.112946
53.230084
43.519406
35.907584
28.561046
16.216103
13.688614
16.121915
6.226629
1.340347
1.321787
3.654021
-3.330154
-5.514765
-5.374112
-0.956373
-7.124987
-4.875966
1.048679
-0.813024
2.664235
4.079727
2.310740
2.128411
1.942362
-0.509210
1.577704
0.475949
-1.060382
1.498550
1.204957
0.886897
0.970750
0.612225
-0.196351
-0.798495
-1.245012
-1.306600
-2.157306
-2.651018
-3.848485
-2.016269
-5.777184
-4.421940
-3.827669
-10.060569
-4.531223
-4.841121
-9.499915
-8.678727
-11.060063
-9.830655
-8.403833
25.831493
63.078949
113.578325
162.364644
179.116556
170.722956
155.799923
141.523841
138.658267
105.890718
89.602930
67.605992
60.331653
40.666014
38.084366
23.357853
23.402387
15.909591
15.788028
3.522409
1.080030
-10.872392
-10.743597
-15.215311
-12.527213
-12.252321
-11.872708
-13.516139
-9.090736
-6.792646
-6.465996
-6.164473
-5.795945
0.677913
2.032290
6.983973
1.704941
-3.777415
2.272124
-2.772338
-1.679221
-0.823835
-0.640761
-0.157852
-0.391216
-0.051261
0.122793
0.111364
-1.073289
-0.620289
1.357870
2.264130
-0.331628
2.953583
0.521025
-0.464280
0.635041
-4.326180
4.775101
-2.089577
2.433533
-0.755257
0.981065
4.734195
22.251047
69.526803
105.112228
106.593951
115.816781
114.073409
110.493415
132.275661
110.210869
98.988314
74.944992
55.645853
48.243964
43.435310
31.123141
36.012169
21.083317
8.775632
3.806582
3.776814
13.382649
-1.062280
-8.090947
-12.524963
-5.503044
-3.167285
-0.945675
-0.922141
-2.858873
-4.647405
-2.595511
2.656793
0.885610
-2.145021
2.128411
1.931198
5.148245
3.557919
2.214184
0.399055
1.523016
1.192724
0.543266
1.197255
0.306424
-0.160993
-0.665438
-1.531540
-1.340103
-1.257911
-2.704682
-3.809215
-4.411359
-4.024824
-8.367006
-5.942899
-3.003338
-3.256124
-2.116342
0.650544
-7.169554
-6.005336
-2.775410
-4.724690
27.786682
79.405111
96.999450
111.200662
109.325094
107.475474
112.481428
108.622691
117.277591
89.259295
74.708513
72.463177
50.412025
35.788973
33.311533
23.446920
11.005319
15.894396
8.448995
3.522409
-3.742044
-1.321521
-1.300648
-8.233257
-8.048992
-1.219765
-5.458973
-7.311936
-9.037072
-6.784270
-8.328703
-2.672888
21.869608
34.126437
31.375158
33.662412
25.023376
20.397835
5.804646
5.704605
4.102760
1.262932
1.771332
0.118951
0.204593
-0.006523
-0.355011
0.120645
-0.474746
-0.194698
-1.342063
-0.295256
-0.336977
1.328397
2.434380
-1.535128
-5.166027
1.990734
-0.603350
-5.036202
-0.706047
0.937315
-2.571253
-0.826931
33.764331
67.836305
105.717714
115.583287
110.036295
112.529027
104.269775
124.880703
110.319988
101.230285
85.004794
65.387622
53.436603
48.431319
35.907584
33.537584
26.088856
18.618314
13.568888
-3.534607
1.333718
8.469208
1.295271
-1.028048
-5.467880
3.382388
-5.174854
-9.096468
-0.881489
1.046028
4.569049
-0.758466
2.463301
-0.658977
6.173531
0.684094
2.874770
-2.467286
2.159136
2.536506
-2.006225
1.174374
0.528382
0.312564
-0.037442
-0.214657
-0.916306
-0.686133
-2.120594
-1.717007
-0.930019
-1.091124
-3.627708
-4.974233
-2.503785
-9.233949
-3.027413
-0.712291
-6.246527
-9.608044
-4.044575
2.472165
-6.340361
-8.446764
31.904794
75.379225
99.646875
119.323640
113.868508
112.355427
103.718090
108.729814
114.968561
91.443650
67.411908
65.267676
45.611465
38.193595
30.775724
30.629033
20.845308
15.879201
-3.811612
8.384003
-1.334567
-1.321521
-3.639522
-12.789015
-5.747871
-7.789348
-3.288019
-9.305394
-7.018788
-1.050172
-10.066277
-7.770594
-5.712188
-0.825788
-6.235794
-0.699245
6.277873
-1.603733
-1.365736
-0.416155
-0.959311
-0.776236
-0.987069
-0.399103
-0.443909
0.003977
-0.051349
-0.325738
-0.826336
-0.198977
-0.807415
-1.617508
-0.344466
-0.386186
1.503284
3.796248
-0.519908
-13.337741
-36.300087
-43.239327
-46.625114
-44.979166
-40.111752
-34.333742
16.657664
69.857883
99.785806
104.675375
108.048248
106.050960
108.058233
115.259219
98.502601
91.845387
72.845931
53.333344
43.519406
35.907584
36.047031
28.588721
30.972787
16.153311
8.716049
8.630931
8.528790
-5.796070
-3.385599
-10.161628
-5.462020
-0.978838
7.507378
-2.952437
-4.793919
-10.215673
-6.175540
-5.820529
-2.276703
2.277251
-1.944034
3.119431
-0.496373
-3.426269
-2.074630
2.476924
0.323486
0.247918
0.178978
0.305122
0.038447
-0.087876
-0.274612
-0.692152
-1.373605
-1.281986
-2.160916
-1.113093
1.166180
-5.013503
-3.526146
1.578776
-0.658804
-2.006497
0.614754
-8.207484
-5.695437
-6.080716
-0.999294
-1.033213
39.664528
84.212551
97.546851
109.276907
101.016961
108.370171
122.757288
118.416093
103.353299
84.523681
72.601995
53.332650
45.654946
30.893076
33.374923
25.830272
3.576967
13.377389
-6.235387
10.743287
-3.742044
-6.060844
-5.970563
-15.014500
-12.501033
-9.970831
-9.605914
-1.138882
-5.025625
8.364042
-0.994076
-4.339492
-2.478829
-3.755677
-0.750123
3.039110
-0.630103
-1.581764
-2.244980
-2.588074
-1.546809
-0.268740
0.911156
0.109477
-0.061314
0.007955
-0.169800
0.375821
-0.154047
1.186607
-1.388947
-2.336467
-1.892953
-1.271766
2.495545
1.670729
-1.701463
-0.574466
-4.714215
-2.141556
-5.531566
2.667956
-0.804466
6.647690
36.087933
87.844937
114.866465
115.839854
115.942668
121.869171
117.706320
115.840748
113.187933
89.750096
68.114238
56.024029
45.954339
43.393263
41.040338
38.337420
33.407720
28.450344
16.027726
20.775980
3.720999
-10.577040
-47.557966
-67.292525
-65.670169
-57.395950
-49.087893
-33.290047
-20.394482
-10.202626
-9.615519
-5.787504
0.869701
-0.652559
0.738450
-2.983013
3.932436
3.447266
-2.873112
1.779911
-0.814346
0.692106
0.176327
0.839862
0.146797
-0.156487
-0.815698
-2.189921
-1.738724
-2.296833
0.886569
-2.562947
-1.263214
-4.132153
-1.563457
-0.604012
-6.675944
-7.251908
-6.278726
-2.310401
-8.940529
-6.114219
-15.443678
0.836865
53.890709
76.526684
104.663043
113.609212
101.552576
99.234145
109.370712
97.148856
96.048570
86.559789
67.411908
50.653000
43.303234
38.230004
23.469187
25.953391
13.480095
13.377389
-1.351526
8.327135
-10.947522
-6.048807
-10.647002
-3.551646
-5.723796
-3.394202
-7.512951
-5.218224
2.840432
-2.907224
0.797917
-2.628951
-7.244684
-8.155124
1.953863
-6.859205
-0.620971
3.420218
-2.202849
1.043424
1.464770
0.210532
-0.198293
0.323939
0.224906
0.013258
0.215818
0.386984
-0.164744
0.262501
-1.435831
-0.998007
-0.349814
-0.394745
0.544889
0.597920
-1.736116
0.715912
-0.617257
-8.089039
0.896216
-2.498482
-0.810885
2.920984
49.764869
88.470911
94.130953
115.968137
117.075659
113.003832
120.775443
116.073360
110.756467
89.399851
62.802897
48.290803
50.858759
43.519406
35.768137
21.247230
25.987737
8.724561
16.074821
8.630931
10.961836
3.676347
3.609369
-1.018420
-3.212334
-3.136098
-5.133830
7.217978
-2.813825
1.028793
2.757260
-0.745629
-2.248980
-5.003178
3.376325
-0.537024
4.973728
4.352012
3.686667
5.156676
1.974730
2.381207
0.480009
0.957804
-0.023535
1.434870
5.304968
8.022146
7.838269
9.565798
7.833287
3.249189
2.024151
1.323034
2.479729
0.498961
1.759499
-3.340386
-0.772300
-3.815864
-5.779193
-13.103919
0.806338
2.714266
42.160597
82.371553
98.422693
100.940737
110.490607
104.016404
109.042271
104.661813
103.353299
89.431112
62.739684
53.130441
35.925183
28.302998
23.402387
18.482919
15.818419
8.481491
-3.789643
8.375879
-3.738382
-1.314998
-3.628538
-14.983606
-5.705740
-7.730718
-9.573715
-1.124532
-6.935032
4.573082
-4.544128
-10.951934
0.698967
0.650544
-0.738382
-3.129731
-2.834814
-1.515857
-0.459206
-1.805614
-0.893404
-0.255694
1.145489
0.690543
-0.276396
-0.181077
-0.066326
0.147160
0.210796
-0.217163
-2.055761
-1.008403
-0.355163
-0.402233
-0.446094
1.707939
-1.746512
-5.773168
-0.622605
-0.668605
0.897542
-4.254749
-0.811954
12.338681
42.697653
88.992556
115.650537
107.306160
117.327434
119.719302
121.022427
118.701505
100.732594
82.384138
55.915979
63.231377
46.087669
33.570051
23.685320
21.103806
21.103806
16.059122
11.070909
6.189930
3.717278
1.307203
-5.678860
-7.785473
-0.988466
5.510995
-3.007881
-2.914318
1.072543
1.024815
-2.540066
-0.740280
-0.695350
2.217715
3.357976
0.668185
-1.562851
-1.375725
0.442805
0.371214
3.033046
1.058160
1.341598
0.084849
-0.051980
-0.458153
-0.487516
0.144214
-2.303855
-2.905999
-2.822743
0.323167
-1.299829
0.410538
0.451591
-3.970055
-5.548891
-2.046774
-10.540109
-8.377655
-7.427142
-6.214727
-15.584809
10.321901
52.239076
83.324927
107.255462
112.777117
97.493195
97.450255
105.080045
95.397709
86.225582
67.153129
82.306325
115.063682
112.693364
105.354331
90.633836
75.713238
52.928232
37.975137
25.510164
5.910982
5.864848
-6.066863
1.041081
-1.261511
-5.669628
-7.688840
-3.255066
-1.121923
-6.935032
-1.030604
-4.514035
-7.588135
-8.691817
-5.125893
-8.665776
-0.667936
0.487382
-0.536175
2.001084
-1.757464
-0.315704
0.197900
-0.836601
-0.505572
-0.102522
0.178747
-0.404377
0.148486
-0.177582
-0.223582
-0.273861
-2.452052
-0.360512
-0.405442
-1.462357
-6.053732
-0.541303
4.655936
-2.016805
-0.675024
0.909474
0.961179
2.839122
16.145436
60.600052
93.188200
105.406936
121.496658
121.139037
117.688136
121.516396
120.854843
103.462373
84.673714
60.403896
50.907993
45.998782
41.119643
28.533371
33.537584
18.564033
13.568888
13.528980
10.950928
3.694952
3.635416
3.587043
-3.264314
-9.842080
-15.982760
1.152089
3.114476
-6.637879
-0.824792
0.962505
2.560047
-0.685722
0.780875
4.655936
1.841895
-0.481396
1.451190
2.012339
1.663697
2.421420
1.039810
0.439078
-0.066326
0.059582
0.230672
-0.517609
-0.178725
0.610369
-3.475579
-2.269799
-2.621576
-2.956602
-2.389429
-4.679529
-5.141042
-3.153806
-7.382809
-3.611228
-3.894107
-9.136880
-9.765205
-12.002331
10.334739
54.472962
93.732599
114.515700
112.777117
112.963070
109.488542
102.613636
111.998236
96.327511
77.162381
60.389277
38.193595
33.406618
30.922415
20.924946
16.000764
10.994837
8.432747
-3.793305
-6.169181
-1.325435
-6.018713
-5.910376
-14.906370
-10.110358
-1.192369
-9.541517
-7.186301
-8.833148
-10.236448
-11.523474
-5.904828
-11.661776
-6.514849
-2.039451
8.951841
25.588355
27.021936
27.277767
15.750931
12.433663
6.367781
2.299394
1.473307
0.334299
-0.352265
-0.734960
-1.267541
0.217425
-0.230000
0.346024
-2.485077
1.276303
-3.186843
0.560798
0.621783
-3.012316
-0.592652
0.779549
-0.682512
-0.742419
-2.546996
4.654681
18.124419
68.368023
98.077145
111.284820
110.440498
114.971306
109.696040
112.088165
121.339231
105.789509
87.124344
63.047743
45.998782
50.612588
33.440186
28.616397
26.063577
18.636407
18.473565
3.765651
8.579861
3.713557
1.303226
1.271408
-1.006652
-3.198473
-3.097979
3.207501
3.107034
-4.700150
-11.844297
4.422252
-4.002746
3.871764
2.184226
0.714587
1.812127
1.648403
4.112052
3.533965
1.626997
1.315054
0.222728
0.953318
0.502194
0.017024
-0.589054
-0.351503
-1.806432
-1.549494
-1.402360
-2.320053
-3.455982
-3.006856
-1.457273
-5.825088
-2.919076
-3.189918
-4.748989
-0.789260
-5.452543
-5.921579
-13.299766
-2.844979
23.646552
62.485963
92.193858
99.408014
104.232197
106.692614
111.796262
107.979954
104.969039
88.915659
69.666977
52.877679
50.749390
33.374923
28.410922
23.402387
25.904143
13.505771
1.094767
-6.211312
-11.001186
-8.518028
-8.367267
-5.922414
-5.783983
-5.651572
-12.016699
-13.655162
-5.146000
-8.800949
-12.033225
-7.995984
-0.909279
-2.383631
-2.207879
-2.028466
-4.196197
0.480013
1.346904
-0.439637
0.944537
0.243165
-0.230907
-0.454025
-0.586295
-0.020873
0.370848
0.655406
1.363412
-0.185070
2.388699
0.997228
-0.330559
-1.216321
-1.334141
-3.583134
4.043089
-0.553070
3.425258
0.784852
2.403765
-2.415315
2.723771
6.537037
8.682210
26.979412
36.371291
52.287307
60.325982
57.171448
68.244390
83.973219
87.823752
86.443019
62.619263
57.943685
50.809524
45.821009
33.440186
11.278147
26.088856
18.545939
13.608797
11.060001
10.972743
6.085949
-5.731605
-3.316293
-3.246987
1.221029
-0.953164
5.272450
-4.881827
4.868759
1.008906
2.690282
0.897542
-0.673954
-4.813288
4.562307
-2.807197
0.579359
3.183401
-1.881232
2.857712
1.278355
-0.173303
0.137879
0.182329
-0.006019
-0.536643
-1.295919
-1.222844
-1.113462
-1.438472
-4.356058
-2.730459
-4.804062
-3.375384
0.468434
-0.637931
-1.947913
-6.128466
-3.665396
-2.416584
-10.936487
-2.738795
-6.541377
14.287840
62.930703
90.324578
108.206730
104.791383
105.210464
109.935890
112.396307
114.633049
89.345203
74.995577
69.935185
47.992209
35.891130
33.374923
20.964765
35.925183
10.984356
1.097925
1.089504
-1.334567
1.065292
-1.305866
-5.898339
-3.518693
-5.639534
-1.196283
0.924236
-3.126913
-12.558424
-8.317970
-7.920854
0.727388
0.676861
0.630544
1.854976
-4.171070
1.524217
0.407380
-0.426592
-1.017895
-1.336154
0.187374
0.950512
0.860158
0.013685
-0.039581
-0.480564
-0.143349
0.654896
-0.772762
0.356630
-0.332698
-1.219786
-5.140454
-4.644098
-1.652949
-5.613394
-4.631655
-3.498740
-2.252446
7.580573
2.738655
-4.477450
20.223920
67.193306
98.646698
114.043887
112.748445
109.443920
113.953444
126.487371
105.163536
101.329823
70.312531
60.521528
58.112946
40.723117
35.977308
23.593782
16.169009
25.886617
13.542283
3.773093
-5.913281
6.073716
3.639137
-19.383345
-52.738595
-66.879078
-69.018502
-54.228403
-48.429015
-34.996555
-29.783758
-21.377333
-10.330945
-5.160043
-1.978687
-0.560559
-0.516698
1.592588
2.275350
0.410987
2.204548
2.700475
0.966412
0.654469
0.059659
-0.033503
-0.066533
-0.362488
-1.239595
-0.713991
-2.001779
-3.730675
-2.747211
-2.208868
-3.408887
-4.851255
-5.302035
-7.003196
-3.442704
-5.100766
-7.126622
-4.321436
-8.060381
-4.712652
22.070403
65.084945
99.087690
106.294761
109.091991
112.238876
108.056950
110.903434
107.908720
86.893997
72.463177
53.029336
48.221398
35.959235
28.491865
28.249036
15.939982
15.879201
15.848810
-1.347612
-1.341089
-10.904590
-6.006676
-3.599246
-12.579573
3.198470
-11.885799
-3.196482
-9.058538
-8.736552
-2.830333
-4.417735
-10.658441
-6.911965
-4.941629
-0.704463
-8.866511
-0.581834
-2.281092
-2.747211
-0.348318
-1.817514
0.572860
-0.428394
0.211413
-0.002609
0.152561
0.114016
-0.146558
0.242615
0.852109
1.019554
-1.846069
-0.380838
-3.244635
-0.468559
-2.818918
0.696026
0.749057
-0.641861
-2.266307
-2.436107
-0.795908
1.018187
29.842831
65.424579
99.102341
112.921361
110.924886
116.576705
117.221932
115.026606
102.748839
84.425404
80.006696
63.170165
50.711056
28.505695
18.708782
21.124295
21.021849
18.455471
6.220513
-3.506885
10.961836
-10.566389
1.288642
-1.021629
-1.001303
5.572160
-7.306621
-7.034171
1.092429
4.832060
0.998300
0.946595
0.884284
0.825951
-3.340506
-1.812353
-5.091465
-1.483149
2.232534
1.859426
2.759547
2.159645
2.339012
0.817130
0.340471
-0.067005
-0.759225
-0.896194
-3.084703
-3.135744
-2.618819
-1.069155
-3.563311
4.775805
19.904557
30.508638
32.282670
32.329531
23.769487
19.619257
10.180923
7.556986
6.141770
4.550015
37.587021
75.555757
101.404577
110.958131
115.958042
112.588529
104.137153
106.232468
107.803955
89.345203
65.080663
52.877679
40.782313
35.857078
30.834400
31.039767
20.924946
18.377603
5.974417
5.968650
3.488310
-6.090938
-10.679200
1.026344
-5.753890
-7.822850
-5.440917
-3.196482
-13.021834
-6.784270
-8.242840
-4.375604
-2.508121
3.650392
3.385119
1.824287
-2.937132
-0.574007
-1.365736
-0.417460
-0.973957
-1.784012
0.172636
-0.402764
-0.073055
0.003410
-0.257864
0.128599
-1.155850
0.247918
-1.377226
2.357759
0.426896
-1.261370
0.534283
1.652124
1.827011
-0.568047
2.109806
-2.106903
-2.276703
4.318271
-2.557392
1.027467
33.806379
83.313421
99.102341
103.977539
108.493175
112.172922
108.169749
110.623083
109.774390
89.049607
67.586220
53.333344
53.230084
43.183024
36.081893
26.139416
23.548014
13.648705
8.639443
3.761930
6.116532
-5.813652
-1.038745
-5.579231
-7.727680
-3.153424
5.413130
5.235751
5.009439
1.040725
2.798191
2.630746
2.470743
-2.138091
-1.968291
3.150014
3.992019
2.544477
-0.385117
1.101416
0.930250
-0.205396
0.550708
0.544371
0.465599
-0.047599
-0.379179
-1.714619
-0.582177
-1.725382
-3.815413
-1.757464
-2.805840
-3.157617
-2.509803
-2.744533
-4.187821
-5.881610
-2.120003
-0.812742
-8.822718
-7.781327
-4.592278
4.555781
31.904794
71.771099
99.646875
111.443194
105.238731
107.922822
98.951029
106.337234
96.141551
74.708513
55.395937
50.556610
40.666014
35.857078
38.302823
75.641472
85.498017
75.139109
62.799665
54.761026
25.165432
22.511715
12.812509
3.328045
3.246208
-1.221070
-1.176715
2.976827
10.758399
4.630750
0.809496
-4.357548
2.311900
-6.793903
-2.134649
-0.687504
1.657203
3.501459
-1.365736
0.328430
0.272639
0.216848
0.167373
0.344398
0.276807
-0.004279
0.068940
-0.550890
0.893014
-0.672268
0.881877
-0.980680
-1.119292
-0.386186
0.535609
1.652124
-0.527396
-1.850471
-0.606559
-0.652559
-3.891396
-7.583940
-2.585115
1.030119
41.561802
83.711573
105.838811
104.442763
113.736383
110.025450
129.081882
115.142912
108.005130
89.662534
75.310934
62.802897
38.225649
45.865452
38.300163
35.872723
18.672595
16.059122
18.383097
3.761930
3.743325
-12.955509
-1.038745
-1.022699
-0.998094
3.367504
1.161369
-11.102858
-0.870792
-4.582939
-2.595511
-0.749908
-0.702838
5.209201
2.098643
1.905152
2.868653
0.546215
0.470646
1.804377
1.480201
1.162141
1.494300
0.312564
0.122793
-0.192640
-0.561168
-1.245012
-1.348478
-1.792387
-1.546809
-1.787558
-2.889597
-3.199495
-5.484746
-3.877922
-1.841730
-2.021143
-3.514928
-0.817960
-4.098744
-7.813525
-6.407367
0.833707
37.862048
79.962992
104.080286
109.514724
112.487436
110.882707
106.801601
109.693921
98.578918
77.310628
60.446900
57.974481
43.467729
33.406618
20.944856
18.447813
15.879201
10.952912
3.539458
1.085293
1.078977
-15.647827
-1.298039
-1.270643
-3.489401
-10.003030
-5.422860
-3.174513
-5.019607
-2.936516
-11.801520
-6.005336
-5.620056
-5.259904
-7.500620
-4.405588
-5.141042
-6.549535
-3.031983
-3.294989
-0.328750
-1.700255
0.865022
4.701362
2.699126
-0.545134
-3.809011
-6.090227
-7.796520
-8.233031
-7.245038
-5.766444
-4.253269
-3.054745
-4.324550
-3.739999
-4.095010
-3.152969
-4.738984
-0.657908
-5.556334
-7.647850
0.992997
12.244492
51.648588
94.453378
116.572916
120.032843
114.230352
114.678894
115.971370
115.608136
108.005130
90.012779
70.449326
60.697976
50.858759
38.560961
40.802423
30.822434
26.088856
8.699026
18.365003
11.060001
13.302832
1.311180
-5.684720
-7.859778
-0.995955
1.201142
-0.933908
-4.963874
4.954391
-2.702935
-0.794838
-2.415315
5.592231
-0.650419
4.766589
0.674814
-0.493163
0.538260
3.773926
1.761561
0.878156
-1.095920
0.498614
0.464856
-0.100494
-0.091537
-0.968666
-1.021828
-0.607808
0.225269
0.886569
-1.829689
-4.529170
-2.317205
-3.551272
-0.609230
-3.081581
-4.673609
-4.958380
-8.286025
-5.770818
-6.130970
-11.878755
6.474855
44.020458
86.944837
96.517796
111.806991
106.692614
101.308478
107.230093
109.158306
98.388243
72.116131
62.739684
55.819210
38.448461
30.893076
23.558254
23.402387
28.302998
8.473367
10.827137
3.522409
1.077924
-6.102975
1.045292
1.024239
-7.990363
-1.202806
-7.496200
-15.454079
-3.057345
-4.802933
-2.771749
-4.303380
-5.603305
-2.270124
-4.748989
-0.680981
-7.383674
0.442117
-3.015231
-0.392673
-0.919034
-1.203743
0.155794
-0.333196
-0.458153
-0.082561
0.075569
0.147160
-0.166884
-0.686130
-0.866325
-0.310233
2.024572
3.157865
-2.414541
-2.684126
-6.523418
0.719890
0.764966
5.302831
-2.335613
6.102937
6.426384
4.777011
54.187780
84.607416
79.161547
59.665960
49.973218
46.969270
55.291929
68.260609
66.926199
67.190207
50.514120
40.723117
45.865452
31.153211
31.002858
23.570898
21.021849
23.296286
8.656467
10.940021
10.885485
3.650300
3.590764
-5.544067
3.441924
-3.125702
3.237269
-2.924714
-6.695672
2.876332
0.974436
-5.746224
-3.809349
2.236320
2.039107
1.860500
2.776905
0.526328
1.257698
-0.300605
3.086257
0.669780
1.417949
0.612847
0.023864
-0.174543
-1.158526
-1.063707
-0.629776
-0.805528
-3.455783
-3.305722
-2.897972
-2.317205
-5.628737
-3.919801
-1.889329
-5.946007
-4.933253
-8.364565
-7.416409
-2.702180
-6.482747
6.507351
50.143763
80.706833
105.245799
112.534585
104.115662
96.033570
106.908724
106.965828
98.674255
82.148650
62.739684
43.179863
38.412052
38.266414
23.469187
23.446920
13.467256
13.428742
3.536048
-1.341089
1.073714
-17.893259
-8.266759
-3.547985
-7.940109
-7.747469
-9.627379
-5.176093
-5.001551
-1.031908
0.796864
-5.963457
-7.137355
-2.259140
-4.740614
-5.473761
-1.731885
-0.532261
2.867784
-1.763483
0.828601
1.576063
-0.523593
0.478645
0.109116
-0.022465
-0.235640
0.691168
-0.171163
0.275759
-0.866325
-3.835770
-1.167806
-0.403303
-2.443844
-1.597504
-2.977152
-0.581954
0.771595
-6.678554
2.534000
-5.993906
-0.809815
14.221569
44.192532
86.949166
117.105212
113.928464
109.798892
111.072204
99.690838
111.180659
98.696886
77.095378
67.982233
53.178455
50.760290
40.921380
30.792363
36.047031
13.701917
18.491659
6.220513
3.750767
8.477720
-3.406391
-3.337085
3.520065
-5.432717
3.348899
7.379702
1.108339
1.068566
2.865169
7.995050
-12.361666
-36.170027
-37.757159
-34.082805
-25.481439
-18.764625
-10.775839
-9.838940
-4.292979
-0.779693
-0.599497
0.450241
0.570288
0.048373
-0.293147
-0.505572
-1.113960
-1.867518
-1.342173
-2.854942
-1.871820
-2.118587
0.411590
-3.643404
-3.978430
-8.001554
-4.681984
0.629491
-3.864014
-7.480807
-0.969289
-6.491123
12.247498
54.278878
87.645198
103.460075
108.276133
111.656119
102.251370
112.060796
109.801044
96.420491
82.227487
67.994160
45.915832
38.339233
33.374923
25.978014
23.313320
15.939982
20.825399
5.985951
5.957117
-8.585034
-15.555145
-5.946489
-10.410879
0.993711
-7.722342
-3.255066
-3.145221
8.636555
0.832654
-6.298483
2.407377
-2.423907
-3.671415
-7.343539
-5.484494
4.863303
-0.532261
-2.897972
1.672375
0.804732
-1.131518
0.470564
0.269381
-0.106183
-0.198146
-0.235640
-0.709125
-0.171163
0.278410
-2.130066
-1.039590
-3.642848
-2.232864
1.577704
-1.625226
0.674814
-3.229156
-0.622605
-0.676094
-2.373731
-2.522739
-2.630164
14.275850
56.291063
93.297320
120.161305
111.513522
110.629803
108.784754
116.683579
116.887502
108.432028
80.084675
63.047743
58.112946
40.802423
41.000685
25.962457
33.212922
23.456476
18.383097
6.196046
6.171580
1.319135
1.303226
-1.030187
1.251521
-0.988466
3.337736
1.146786
1.105687
2.976799
-4.518474
-0.778792
-0.732792
-0.686791
2.195389
0.714587
1.841895
5.906457
2.367098
2.766324
2.289665
0.298297
1.015344
1.243432
0.226981
0.025535
-0.335026
-1.602381
-2.085347
-2.382396
-3.521920
-2.253048
-4.110287
-3.799434
-2.371373
-6.750346
-7.383674
-0.684895
17.844332
29.013422
37.512804
40.566842
37.813101
20.991165
40.896790
90.840278
112.679965
127.091212
124.535962
113.438704
107.400068
110.574994
109.586798
101.602149
82.542837
67.670687
50.653000
36.027339
26.051885
28.410922
18.535577
25.830272
8.465243
5.991718
-8.618536
-6.108994
-6.036769
-1.282384
-5.814077
-5.669628
-12.055970
-7.412444
-3.141559
-8.854613
-1.025385
-6.264981
-2.581351
0.690545
-2.218864
-2.035789
-1.852714
-1.676963
0.421064
-1.248568
-1.709315
-0.860450
0.617189
0.439875
0.252331
0.020001
-0.029954
-0.081302
0.159092
-0.575240
-0.231070
0.342047
-3.940145
-2.815319
-0.410791
-0.454652
0.623109
0.682768
-0.588373
3.608754
-2.228189
-4.061352
-0.780931
-4.471589
19.996401
62.507723
91.569567
118.302880
106.187353
110.748504
102.348735
120.775443
116.422278
86.272688
74.652238
53.075196
48.337642
43.267120
38.374677
28.533371
25.937177
16.137613
15.980632
-1.083676
-1.076187
10.841855
-12.772853
-5.590952
-3.246987
-0.982048
1.185233
-7.141500
-0.887908
-14.198970
-0.815164
-0.773443
-2.359870
-0.676094
-2.030666
-3.158829
2.997100
-1.524733
1.413980
2.723765
-0.286698
-0.745040
0.617686
-0.116605
0.212097
0.034047
-0.190398
-0.351503
-0.866695
-0.681037
-0.301354
-2.345180
-1.179000
-1.325460
-6.225147
-5.838179
-5.237638
-8.171471
-0.742296
-7.906412
-5.494421
-2.585013
-4.495979
-6.549752
18.058359
56.860054
88.545663
99.845935
115.710797
114.152155
105.301880
107.979954
95.676649
92.061513
70.337497
63.279509
53.282097
40.782313
28.410922
16.000764
20.845308
6.049386
3.553097
-8.677166
-6.217331
-1.334567
36.627985
49.895095
60.280652
56.921568
50.568780
40.841507
29.012564
12.429843
11.928395
