320.096300
347.616672
-59.904110
-22.532391
258.041963
260.733308
206.383887
205.778660
188.015468
161.081922
150.755991
152.219543
145.793851
120.719234
125.798019
110.170956
78.041810
73.383166
73.745373
68.830784
61.820980
43.300785
38.801581
42.996462
38.067288
30.306122
18.079095
8.915510
10.775972
4.173201
0.020790
5.704245
0.018377
3.445317
12.781050
10.220849
10.770113
10.570318
11.561263
7.916864
7.627776
9.043396
7.678405
3.894258
2.282679
0.082122
-2.165579
-3.761880
-5.842921
-4.818110
-12.013748
-9.782093
-11.413165
-16.855836
-15.127562
-12.396692
-12.008936
-11.838045
4.496206
12.409499
29.126762
32.290368
20.735465
39.805924
85.647167
132.476218
154.524613
155.860379
153.187645
145.638762
149.891947
152.653473
143.115093
137.750052
142.628913
141.278486
136.224523
129.156426
111.562610
95.187770
83.725762
72.023325
71.545898
59.149658
57.170718
47.044701
37.276407
42.169965
29.082590
33.867926
16.822975
9.255239
9.133212
8.973639
-0.022711
-2.148574
-6.232452
-3.930245
-5.701277
1.774361
-1.718384
-3.211355
-2.989067
4.058535
-3.824459
-0.011876
-1.050519
-4.479299
0.747467
1.927277
-0.541897
0.407498
-0.278079
-0.001527
0.011643
-0.288673
-0.627863
0.655095
-1.714285
-2.215087
0.665728
-3.745935
-6.808027
-1.902036
-2.118177
-2.367939
0.013255
0.014200
2.979471
54.512281
103.428603
124.604118
128.602111
138.842696
143.140493
131.573711
144.363272
133.993638
128.442476
124.761897
130.896114
121.443549
106.417414
83.820842
70.183059
62.122840
47.632449
44.605026
32.441682
20.032024
31.907792
17.057311
9.777052
7.273820
0.024520
-2.293562
-2.233834
-4.375644
-2.095265
-4.058638
-3.900135
0.019273
-1.763176
0.017283
6.243761
1.465577
2.644645
5.926180
5.176337
5.542148
4.744194
4.433547
3.003206
2.470603
2.524874
0.990708
-0.113074
-1.293092
-2.091875
-2.589390
-7.133512
-7.376797
-6.020297
-5.992940
-6.840998
-4.715052
-7.091959
-7.735184
-12.058124
-5.217464
-9.747321
-8.809485
-9.459945
-11.841923
-10.760864
25.869961
59.421002
90.393235
107.271011
117.471552
120.059031
111.376927
109.743634
112.227543
119.609646
107.013184
85.612898
64.508832
57.008455
47.089378
32.425150
29.703169
12.408595
7.371481
-4.937636
17.151870
43.636380
74.731935
66.114515
58.557845
52.410999
44.913291
26.233568
14.718047
14.290484
1.942017
-0.019220
-0.018421
6.739616
3.159913
-1.485463
-0.014058
-1.259673
-6.829825
-2.057348
-4.396786
-0.007562
-1.248598
-0.508623
-0.404046
-0.002739
0.262156
-0.023648
0.114612
-1.586015
0.003457
-1.349545
-1.123931
-0.654621
-1.532196
-0.860086
-0.967597
2.178799
-3.579542
-3.882648
-2.752189
3.023144
-3.242108
-5.196109
9.082778
47.392060
78.519687
106.714886
119.383901
122.493561
116.130905
124.247009
122.031611
118.068628
112.063125
97.932304
67.220934
57.099294
57.265926
37.392454
39.883697
29.919034
24.888530
24.719385
-4.894382
4.891379
2.441002
0.024296
-4.630210
0.023301
-6.617822
-4.265173
-4.116276
-11.870432
-1.882632
-3.597539
5.122921
4.832258
4.439864
1.377788
-3.695011
0.011489
7.005681
0.008654
0.007261
1.120941
1.329779
1.871563
0.552258
0.321517
-0.292480
-0.566587
-2.990980
-3.752086
-3.595458
-2.405883
-4.298689
-2.450487
-7.236758
-8.966850
-5.422310
-5.940966
-5.151420
-8.272149
-5.792989
-7.826986
-11.792444
-10.633600
3.670181
32.576797
69.889760
99.356376
119.607625
124.961865
121.051166
107.898925
117.727882
108.493051
107.220173
78.874576
76.335937
66.737036
52.197218
29.674961
24.795496
19.887489
27.070544
22.059496
12.220764
-0.025013
-7.231060
-9.538618
-9.387661
-9.142355
-4.488330
-15.189987
-4.218746
-12.217327
-5.878335
-7.462954
3.520377
3.342486
-4.723915
-2.913394
-2.672188
1.206193
3.355149
0.973337
-0.008822
-0.729659
-1.177655
-0.969555
-2.106923
-0.468224
1.946919
-0.386098
-3.964701
-6.710481
-9.642245
-11.762851
-15.307660
-10.348499
-14.200056
-10.621668
-4.006418
-10.025488
0.012633
-1.314020
-4.207405
-6.096305
-4.929087
-1.729728
3.668534
30.376537
75.512300
107.844809
115.642284
124.955602
119.259578
105.954630
120.670271
123.009797
112.174189
81.834558
69.304081
62.183213
42.539184
37.464920
32.441682
32.473088
37.138823
12.311941
12.251470
2.467826
-2.396295
-9.524874
0.023998
-6.812676
4.469207
-4.279582
-10.346490
-9.961056
-5.715720
1.828923
-3.405414
3.222099
4.505263
-4.077502
1.258299
5.575447
-0.993877
0.873006
1.426652
1.159762
3.557811
0.003332
1.696471
0.420739
-0.529956
-1.286448
-2.028630
-2.003897
-2.522553
-5.341953
-4.980864
-0.008289
-3.585237
-4.939017
-7.652719
-9.517091
-5.160855
-1.388017
2.893076
-3.140412
-3.405266
-5.340078
-1.868118
15.338555
59.973196
99.469281
111.307434
115.941580
101.189616
98.916465
112.904973
103.670120
102.443970
80.796698
71.477694
61.850254
54.632079
32.302907
27.303242
32.302907
19.831097
2.433343
2.414714
-2.455173
-7.245225
-7.146072
-9.283877
-2.291178
-0.022953
-0.022226
-2.112923
-10.101999
-3.911326
-3.736334
5.275392
1.657933
-0.016021
1.429734
3.981163
-2.440441
-4.500416
-2.967497
-3.368236
-0.717776
-0.006011
-0.477725
-1.076514
0.221213
-0.283293
-0.067490
0.001492
-0.248469
-0.355980
-0.475436
-1.167159
0.699868
-1.594637
1.785742
1.014442
-2.195027
1.236352
0.013553
1.416805
1.546049
0.017109
-5.253843
-5.491998
30.415184
73.436243
91.681549
119.248699
119.292773
123.227831
129.388894
120.670271
125.421378
63.915890
9.902895
0.025564
-29.839074
-29.723306
-24.789382
-24.765268
-12.394108
-2.446466
0.025365
2.465388
-4.817532
-4.779107
-7.065265
-11.550971
-6.783809
0.022829
2.175199
-6.163163
-3.957773
-7.579450
0.018775
3.435612
-1.574435
-5.980735
0.014100
-2.478411
1.131494
5.019112
3.436489
3.628273
0.590132
1.373379
0.674506
1.262217
0.599414
-0.169827
-1.018111
-1.414516
-0.780373
-1.007391
-1.182384
-0.007174
-0.008265
-4.479299
-2.974579
-3.272037
-5.940966
-6.447834
-4.136082
-10.209123
-4.745162
-5.078032
-3.566070
-0.019075
15.282163
61.972824
91.282039
104.999827
112.285430
114.924618
111.324303
115.718799
103.973544
95.399919
78.799314
64.386540
42.129993
34.789503
34.723676
27.303242
14.838824
19.755909
22.207546
2.431014
4.845200
2.382115
-2.393378
-4.686970
-6.862779
-8.887614
-4.322796
-0.021378
-10.078424
-7.755434
-1.858611
-0.017984
-3.334323
-4.631845
-0.014785
-1.314338
1.185236
1.071137
-1.901274
0.810338
-1.381025
-1.120900
-0.912800
-0.003321
0.797865
-0.000654
-0.040615
0.165822
0.562897
-0.384649
0.005173
-1.833072
0.726692
-1.642668
0.919338
1.029074
-2.281483
-1.235179
-1.328355
1.450945
3.144458
5.064788
-1.756008
-5.520866
24.935814
60.198827
108.346996
109.095776
109.975222
103.733358
108.938446
111.321475
104.444798
88.750220
69.371694
62.122840
47.311228
35.104436
34.833882
22.489113
19.935344
14.899962
9.883535
19.625970
7.281087
2.433686
-2.341345
-4.615801
-2.233834
-2.183662
6.445433
-2.037925
-1.968641
0.019671
-5.405397
1.721626
-25.628778
-37.218868
-36.484171
-37.209484
-24.576331
-22.081542
-14.476972
-10.746518
-6.366691
-2.276469
-0.658028
0.002064
0.078034
-0.113509
-1.032251
-0.864044
-0.799292
-1.473125
-2.994058
-0.710646
-4.878447
-3.632411
-3.962631
-2.203964
-7.112634
-5.179724
-5.547683
-7.343694
-4.787656
-10.280089
-7.179909
-5.580877
23.102465
66.360400
96.189510
103.533860
94.870802
104.088087
108.672790
121.402624
101.554871
95.032996
73.872866
54.269934
44.609839
34.723676
46.955347
32.150102
14.824732
22.228696
12.267722
-2.459927
-7.280637
-7.231060
-2.388625
-6.947767
-11.410426
-6.629062
2.109673
-8.274350
-2.029737
-7.698825
3.646774
-6.972343
-6.566645
-9.219557
-5.679771
-0.013355
-4.764592
-2.156668
-1.887085
-4.019582
-0.682125
-1.101982
-0.004532
-0.323237
0.741545
0.058214
-0.059728
-0.365037
0.003009
0.409679
-0.501717
-1.248812
-0.721516
0.836427
-1.839596
0.010594
0.011763
1.248545
-5.354732
-1.423920
-3.112423
1.702117
-3.535098
-1.837239
29.095097
74.508305
98.158079
111.987857
108.604209
101.804916
118.946410
114.152875
116.123026
92.853520
73.962698
54.511755
47.173562
34.901520
27.374945
22.402115
29.803069
19.761321
12.372412
2.470265
-4.831941
-4.774304
-7.043614
-2.295951
-6.740508
-4.399660
-8.465485
-4.087457
0.020417
1.914272
1.824046
-1.681946
-1.572046
-2.953920
2.731991
0.012732
1.126616
5.019112
2.565094
4.308947
1.773039
-0.912593
0.341399
0.624924
0.329128
-0.212177
-0.707613
-1.132180
-2.290749
-0.499116
-3.017633
-2.096370
-3.226713
-1.797224
-1.995864
-7.652719
-8.378408
-9.137082
-8.272149
-7.355481
-9.558928
-0.017524
28.740937
48.182900
89.048332
133.207534
150.908164
172.194957
157.329947
131.383783
134.931009
130.538321
140.934006
112.852260
83.965663
71.886917
44.652164
42.329851
34.690762
24.771993
19.755909
9.846598
-2.462304
7.273007
-9.661271
11.903799
-0.024213
-9.227268
-6.806121
-8.849875
-10.667805
-6.204122
-2.010723
-3.845113
-1.834844
-3.480939
-0.016748
-6.028859
-5.623161
-1.283440
-0.011973
-2.118832
0.910466
0.775410
-0.006738
0.516940
-1.267737
0.277098
-0.321608
0.027943
0.160134
0.002139
-0.643618
-0.874168
0.005496
-1.287237
0.755955
0.008704
1.921613
2.125421
-4.651683
-1.263848
-2.699355
-2.901086
-4.727016
-1.689113
-3.578326
-3.722420
32.930913
78.817349
98.385034
119.111384
99.631919
104.177613
111.950942
104.854796
102.320845
93.679293
71.848146
64.857676
52.440726
35.002978
25.009348
24.912694
17.429594
7.440951
12.311941
2.465388
2.455634
-4.755091
0.024346
2.331267
-6.733291
-8.773671
-2.107210
-4.058638
-3.919348
1.899641
3.605451
0.017557
3.192984
-4.387825
-2.680142
-6.094673
0.011365
1.960434
1.693543
1.392684
2.866336
1.315246
0.951919
0.931257
0.058526
-0.122968
-0.173502
0.291070
-1.603922
-1.551031
-2.443622
-1.433049
-5.706553
-1.820871
-2.014782
-0.011367
1.192222
-10.478222
-4.178576
-5.962816
-1.628067
-3.443102
-12.666569
-0.019293
32.976513
72.818434
103.155703
104.211290
119.907976
104.412686
107.225877
110.471867
102.048815
86.271458
66.546541
54.528609
44.567515
34.789503
24.866004
19.831097
27.096399
27.018833
9.752731
-7.316048
2.384443
-4.795750
2.314586
34.419842
54.070012
50.463841
53.266473
45.268058
41.826909
18.943289
10.836710
13.778383
8.029782
10.458858
4.142941
-0.012991
5.752329
6.200458
-0.009356
-0.770064
-2.604014
1.519313
-0.004169
-0.273325
0.142042
-0.047295
-0.196928
-0.857142
-0.329700
-1.752808
-1.090309
0.663289
1.504293
-1.695502
0.963233
0.010867
0.012061
0.013105
-2.704158
-7.287109
1.607013
-3.366989
-7.146063
1.892325
33.095157
91.265880
105.267172
115.036867
113.405428
109.285443
114.637777
119.874199
111.952062
92.853520
74.614671
54.564885
37.428687
37.501153
37.464920
27.401523
17.344984
29.542147
9.835134
2.453195
4.857411
4.784623
2.360530
-6.841543
6.714296
-4.356432
-4.188323
-2.016423
0.020243
-3.746435
-3.563917
-1.665222
3.173573
1.472892
4.032937
0.012558
1.109546
0.009972
3.320326
2.049168
2.255498
3.480468
0.635685
0.726019
0.174397
-0.064172
-0.001842
-0.610110
-0.799292
-3.595458
-3.076571
-3.559864
0.801024
-4.514662
-4.974380
-2.227612
-3.619071
-1.326221
-5.575987
-4.483116
-3.249191
3.440794
-5.432148
9.344600
35.086866
77.133376
106.202075
106.613436
110.906486
109.743634
105.317644
109.930869
102.147604
98.223160
71.409490
42.129993
47.134055
27.173965
34.624935
17.382096
14.782456
4.920102
4.882651
-4.890340
-4.861963
-7.167319
-2.369611
-13.786915
-4.507248
-6.565321
-4.242394
2.016531
-13.854060
-7.557303
-5.403819
-3.433643
3.188001
-5.962816
-4.100670
-5.009897
-2.270177
-2.052619
-4.373211
0.728839
-0.006253
1.463042
-0.747267
-0.237674
-0.354117
-0.007082
0.121928
0.002387
-0.339256
0.004750
-0.559056
-7.401279
-23.788209
-27.799086
-29.029189
-26.058879
-31.923650
-31.096929
-30.149797
-26.663102
-16.156504
-15.515636
-16.318543
1.902080
45.268409
80.229846
110.481294
113.243326
111.423853
116.730017
107.953774
110.286108
107.616928
81.356459
69.101239
52.237861
47.311228
37.392454
37.392454
24.936857
22.380365
7.419152
9.873854
9.854494
7.281087
2.406862
2.367845
-2.276838
-2.226667
0.022356
-6.293065
-2.004478
3.930573
0.019223
-3.554311
1.694802
-1.550544
-5.797749
1.329017
-2.401561
4.404514
5.774279
2.456095
1.363569
0.560870
0.434064
0.307259
0.716338
0.193605
-0.283045
-1.201936
-0.003030
-2.474574
-2.628642
-1.243868
-2.943668
-5.805511
-4.597176
-0.010374
-2.232341
-3.668648
-0.013500
-7.001852
-6.019425
1.609033
-5.198431
-1.827714
-1.901393
50.751024
87.993175
99.386408
102.371316
107.033914
107.125060
115.373026
110.471867
97.376409
80.874312
66.292546
56.954367
37.135342
44.863785
27.277387
22.313297
22.186396
9.790278
14.669720
-2.452797
-4.838315
-7.160237
2.305272
9.133212
-4.493059
13.049146
-10.538141
4.058733
-0.020238
-9.382954
-10.718442
-1.718384
-1.606677
-2.955960
-4.093588
-4.953288
-2.289095
-2.019512
2.595493
-0.007489
-0.610822
1.905490
-0.366018
0.230527
0.234068
0.017070
-0.131402
0.002437
0.003680
-1.392846
-2.854620
-2.035143
0.008057
0.009102
0.010072
-2.146996
2.397164
-2.569670
-1.364192
-2.958723
4.868591
1.750889
-3.602342
15.004682
60.932314
91.700480
116.322823
113.243326
116.005359
126.281969
124.378014
120.115638
104.963908
98.415205
42.251757
-12.394108
-19.903353
-32.171124
-24.741154
-22.329495
-27.111494
-29.636481
-24.500012
-16.990607
-16.889372
-9.495982
0.024097
-6.848760
-4.457298
-6.502353
-2.066595
-4.034623
-3.871317
-1.844406
3.527810
3.348266
1.577751
5.740388
-3.911515
0.012310
-1.060772
3.804338
2.383430
0.680359
2.119975
2.019739
0.582307
0.600175
0.067936
-0.198641
-1.434885
-0.949032
-1.707705
-0.005453
-0.641720
-2.216770
-0.843743
-2.811686
-2.071537
-4.538156
-6.176718
-0.013767
-1.426045
-6.085468
-1.666095
3.478245
-3.665391
13.270910
51.423628
101.081062
104.308280
102.924077
103.222489
112.030551
118.080712
110.580067
95.032996
83.565827
64.264249
49.475165
29.872418
24.913010
27.303242
29.787794
29.590337
9.818438
4.859244
-2.455173
2.379786
-11.893719
2.302944
-6.898191
-8.925354
-6.515745
-4.228205
4.040008
-1.970318
-5.602124
-5.325913
-6.736472
1.550819
1.446034
-4.001517
-0.012458
-1.126575
-2.939168
-0.846120
-1.399943
-1.168195
-0.004799
-0.337497
0.426003
-0.085563
-0.062441
0.001467
0.002735
-0.377482
0.005073
-0.602060
0.007286
-1.613849
-2.677439
-3.016630
-7.811967
0.012558
-1.302074
-4.185754
-3.006755
-6.558584
0.017980
1.841116
7.608676
59.401971
100.441148
103.990305
115.932594
105.193687
107.803671
115.702524
111.174616
110.279605
88.663295
67.025335
54.936797
37.573619
39.845050
27.374945
22.358616
12.396601
19.703313
9.864174
2.462949
0.024843
-9.515243
-2.310286
-2.262503
-2.202775
2.192269
2.106919
2.024008
1.955728
-1.825293
-1.736895
1.653346
-1.526652
-1.395250
2.596119
0.012185
4.230269
2.783090
2.332564
0.655974
-7.159148
-12.118521
-6.485765
-3.583267
-0.289543
2.488035
4.561874
3.045606
2.705654
2.723552
1.948378
4.495332
-2.556722
-3.792804
-3.137473
-4.613634
-5.019332
-5.425030
-4.298975
-6.179817
-11.693486
-5.290502
-5.538383
5.704457
55.710040
84.863928
106.672516
113.998383
107.711344
110.646873
111.657699
113.094877
92.953315
76.263028
59.262539
42.209936
49.616254
32.394589
19.943881
22.207546
22.207546
9.790278
14.613352
2.407729
-9.595227
-4.757913
-6.976096
-9.142355
-4.469412
-0.022274
10.412889
-2.053504
-1.958434
-5.580877
-0.018154
-10.011421
-3.126223
-1.454565
-5.330682
-3.626154
-0.011319
-3.858847
1.638474
1.380999
1.716261
1.357534
0.998808
0.807252
-0.000727
-0.045393
0.156068
0.002835
-0.754090
-1.008656
-0.606838
0.714499
1.635312
-2.706307
-2.002902
-2.233452
1.241229
-1.302074
-1.388083
-4.575463
-9.932992
-3.496673
-1.808569
13.334485
59.546854
96.796349
108.480111
114.247702
109.550651
117.715081
110.527132
103.302758
107.829400
71.357954
71.708091
47.081785
37.247522
37.392454
32.221845
22.402115
17.378828
9.854494
9.873854
4.876822
-2.372403
-9.428566
0.023898
-6.783809
-6.617822
-6.437402
-14.560967
2.024008
-3.823285
-1.820515
6.960099
1.658223
3.061965
-1.395250
0.013255
-1.163505
-1.036881
-0.917425
-2.294948
1.290781
-2.070625
1.548840
1.281990
0.001243
0.087049
-0.001091
-0.701151
-2.407968
-1.802053
-2.758305
-0.663111
-2.280511
-4.267122
-5.642030
-2.099914
-4.604199
-3.781965
-6.766100
-5.717510
-12.381641
-9.983140
-3.532964
-9.217927
7.621961
57.836912
114.237203
174.347498
173.573080
183.493597
168.631227
173.611172
159.911142
129.904437
91.463687
71.818713
62.144219
49.898432
34.822416
37.135342
17.332762
17.250538
22.059496
-9.821663
-7.330213
-7.259390
-2.391001
-2.350597
-6.884026
-4.469412
-6.473251
-12.514276
-10.078424
-5.835841
-3.707956
-3.528234
-6.642124
-0.015876
-2.885017
1.294678
3.566165
-3.272037
-0.950696
2.426680
-0.691632
2.234023
-0.004508
-0.003248
-0.001915
0.058214
0.053648
0.001766
-0.844368
0.004153
-2.577589
0.006366
-0.716738
-2.460935
0.924216
1.021758
-2.238255
-2.464002
1.338771
-4.236272
3.076522
-3.318958
-3.501476
1.860624
15.294721
63.669754
101.742505
110.732388
109.975222
101.261667
101.880192
125.529662
105.492211
102.726478
78.737232
63.978676
49.654841
42.374940
29.774078
37.319988
19.896673
19.703313
4.930200
2.462949
9.660889
-11.984584
-11.779822
-6.906495
-6.733291
-2.178884
-6.415751
-4.121079
-3.972182
3.833521
-1.801402
-5.160025
-3.213289
-2.997148
4.192802
0.012981
1.163195
3.102819
0.892514
1.494588
2.468464
0.999627
-0.720468
0.958345
0.387210
-0.037739
-0.410775
-0.501331
0.358598
-1.886967
-0.575171
-1.357377
-2.337169
-1.773576
-6.910537
-2.175587
3.509894
-1.295324
-2.747861
-10.192630
-6.302470
-11.891402
3.529740
-3.736334
19.248825
62.264461
96.297710
110.126095
97.284713
115.884322
102.252443
111.768251
116.405027
95.950303
88.652209
59.714063
42.209936
39.763312
37.241141
29.787794
14.838824
12.373377
19.624328
7.308177
-0.025013
-9.651836
-14.225268
-11.634391
-15.981648
-13.334421
-12.910208
-12.485996
-12.061783
-15.359265
7.359135
29.698847
39.339038
39.867070
29.678834
30.985842
26.074401
18.027160
12.132690
3.909236
3.298785
0.540225
0.837962
0.921435
0.165328
-0.000412
-0.074063
-0.195908
-0.624406
0.419433
-1.047081
-0.616395
-0.726295
-1.657077
2.804890
0.010693
-1.127668
-2.502427
1.353403
-2.843448
-4.654848
1.699679
-1.751230
0.019024
21.129205
70.312989
101.742505
112.238951
119.553522
115.129289
115.769745
126.169467
118.305239
103.132110
69.371694
64.732105
49.413329
52.339294
42.210696
37.175056
19.877337
19.722649
9.777052
0.025117
4.871969
4.799181
7.077624
2.328828
0.023152
-2.162160
2.145936
-4.092260
-9.936967
1.931342
-3.602342
-1.693891
-1.591159
-5.961473
4.134669
3.778608
3.400747
0.010619
-2.612488
3.664556
0.614518
0.004949
0.368223
0.002387
0.109735
-0.063741
0.285563
0.528993
-0.356511
-2.369314
-1.149277
0.677610
-3.170104
-2.627545
-2.925003
-1.081417
-4.689113
1.259750
-4.107752
-5.840163
-9.530647
-0.017500
-1.803946
-1.870495
29.024109
68.771877
107.127019
114.071554
106.469389
111.684777
105.211798
124.272916
106.702701
102.839125
73.731753
61.909047
47.178732
42.129993
37.170608
19.906286
19.831097
17.316317
2.428686
7.294109
-12.141259
-4.819397
-0.024335
-2.331583
-2.284048
-4.441034
-8.604569
-6.211205
-0.020529
-0.019657
-9.135413
1.718476
-6.528906
-4.546857
-0.014494
-0.013137
-0.012046
-2.118832
0.903480
-0.779571
3.251827
-1.558113
-0.832398
-1.438091
0.146699
0.084406
0.085350
-0.584562
0.650243
0.443819
0.005521
2.584627
-0.740629
-6.750168
-21.864882
-30.160516
-33.449482
-32.811090
-32.081375
-28.758751
-25.011217
-13.481050
-12.401287
-5.528083
23.222041
72.669132
99.434687
114.141141
114.624343
110.733703
115.890465
116.175745
104.133332
105.067729
81.356459
59.407007
52.288577
42.292818
32.253251
27.295212
22.315116
12.336130
17.141921
7.331953
9.660889
0.024669
4.706982
-2.276838
6.765162
-10.924641
-10.527162
2.055709
-3.914545
3.784996
-1.794235
-5.080640
4.803192
0.015294
1.370473
7.457235
3.342615
4.982829
1.712953
1.455768
3.510994
0.936544
1.345555
0.624924
0.254329
-0.070943
-0.488681
-1.668570
-1.956747
-0.993203
-0.596562
-4.227987
-0.812845
-3.604107
-0.998231
-3.300366
2.387490
-1.309584
-0.014276
-8.894328
-4.794738
-0.017669
-1.811077
-3.759981
33.136399
77.133376
97.379707
99.976499
102.573291
104.629085
105.423491
105.253780
106.599207
90.854510
69.077815
54.476874
54.787283
29.900626
27.303242
19.943881
24.866004
9.855984
-0.025328
7.322244
-4.857234
-4.814668
-11.775842
-4.634945
-6.799038
-4.422116
-8.557395
-8.283785
-9.948760
-3.802547
-5.446313
-5.198431
-3.235003
-1.509230
-4.143164
-3.789047
-1.159850
3.059728
-0.009138
-0.007756
-0.006471
0.987765
-0.004023
0.258470
0.266837
0.049237
0.001094
-0.432281
0.003606
0.907428
-0.549499
-1.984625
-0.757353
0.870567
-0.953262
-2.127783
-3.536241
-3.839347
0.014150
4.381732
-6.385229
-6.808985
-3.573523
9.324663
37.169830
87.314190
105.267172
116.685281
112.789763
111.798451
116.494061
123.914815
109.301756
98.415205
81.117410
51.781414
49.509934
51.933563
32.347467
27.295212
24.864366
27.135747
26.790238
-29.289178
-70.117952
-59.357158
-72.711128
-71.215014
-53.797108
-56.588152
-29.447062
-26.432999
-13.683597
-16.839347
-8.925203
-1.667611
-1.562489
-2.934708
-1.337911
2.445690
0.011439
-0.962818
1.688690
-0.707182
1.743973
-0.456323
0.995518
0.581324
0.075595
-0.049912
0.323013
-0.287586
-1.154420
-1.515619
-3.690651
-1.423590
-1.631690
-4.479299
-4.000370
-3.307449
-0.012313
-3.930694
-4.128999
-10.440024
-0.016578
-3.438373
-7.208214
1.851203
29.270973
81.664466
99.275855
106.152404
111.847368
109.630729
114.681479
110.471867
101.950026
76.044301
71.341286
59.431861
47.312762
37.276407
29.957043
27.432519
24.771993
17.250538
9.780891
9.715184
2.386772
-4.805209
-9.415965
-13.801055
-4.507248
-6.593651
-14.860129
-4.128885
-5.934994
-0.019390
-10.845706
-6.849690
-3.220814
-2.989067
1.348235
-0.012797
1.110722
-2.024241
-0.867510
-1.461427
-2.453057
0.479683
1.831354
-0.491872
0.109442
-0.000000
0.001318
-0.485115
-0.339256
-0.912593
0.580378
-2.027926
0.007958
1.746921
-5.870153
0.011215
-2.377546
-1.275794
0.014200
-4.409476
0.016562
-5.145591
-5.412613
1.899641
48.840989
79.288181
101.984294
117.076405
115.000983
112.035061
114.637777
109.952917
99.588141
93.037025
71.427981
59.464965
49.558236
44.691975
39.922344
27.348367
24.791876
-2.451244
-2.434521
4.896232
-7.180734
4.760360
4.677867
2.306881
-6.697207
-8.677363
-10.478983
-10.141729
-3.890529
-5.585817
-10.684834
3.377381
1.580189
1.465577
0.013727
7.239612
1.114424
1.941023
0.836427
2.778232
3.908967
2.189058
2.199852
0.581324
-0.202247
1.185081
4.708228
7.466713
9.303088
10.393547
11.131298
9.504450
7.360215
2.701001
5.012744
2.200236
-0.012458
-0.013476
2.771361
-0.015367
-4.908056
-12.122303
-5.467560
-1.899016
44.946894
79.530509
103.386218
113.386804
100.448688
107.456717
108.524273
115.163072
100.197297
86.106818
64.264249
49.710313
44.779137
32.211224
22.419047
24.866004
19.774706
14.740180
-2.474187
-4.895070
2.396086
-2.414769
-2.362480
-9.255573
-4.516707
-0.022444
-4.232935
2.016531
7.837854
-5.687112
1.767375
-0.017451
-1.599547
-4.433539
-1.361873
-1.250166
-1.140836
-2.005323
3.416741
2.166428
-0.006181
-0.004944
1.097282
0.235184
0.504796
-0.036084
-0.131402
0.762988
-1.082523
0.482836
0.005943
-0.676123
-0.778855
-6.175335
0.987618
-2.180618
-1.182618
-1.275794
0.014274
-2.963526
-3.213289
1.743573
-1.801402
11.287411
54.969968
91.591830
105.750049
110.819637
108.840820
111.916756
110.073222
114.848223
106.660806
90.678573
68.966012
54.564885
37.102590
39.729109
32.284656
24.816039
27.242057
14.798405
12.227281
12.118433
4.842854
2.394669
-4.620604
2.289811
0.022953
-2.128712
2.109358
0.020765
-3.847301
-7.425357
5.311851
0.017209
-4.625980
-5.749595
-1.297296
-1.168283
-1.067940
2.848489
0.008256
0.670605
1.082121
0.844345
0.577455
0.160945
0.145204
-0.083186
-0.392552
-0.949032
-1.698270
-3.153315
-3.194448
-0.007586
-2.500063
0.919780
-5.151194
-5.705213
-2.483006
-6.660011
-4.270646
-7.603021
-3.296487
-3.518775
-10.972970
1.883803
45.487771
76.234244
89.502639
106.843951
108.162964
96.319065
108.848872
106.392218
125.601331
145.307427
136.618897
129.899446
126.920925
112.515232
87.259300
72.091529
66.927532
51.802158
39.199026
14.542893
16.839419
4.746892
2.305272
11.399003
-4.497789
-0.022396
-8.434742
-10.172725
-1.975072
1.848875
-5.354243
1.662590
-1.585286
-0.014955
2.644964
-1.226398
-3.335778
-1.953298
-0.008604
-0.007150
2.290343
-0.004654
0.330655
0.633047
-0.151345
0.108998
0.148752
0.002835
-1.521668
-0.999049
1.217992
-2.841090
0.821796
-2.699090
-2.002902
-1.106166
0.012608
-2.627308
2.819337
-1.500372
-6.548953
-3.467854
-1.818126
7.589316
51.295955
96.228961
116.322823
109.733784
113.774827
112.626588
110.527132
120.236357
107.085749
86.285531
66.764536
59.464965
44.865874
37.283755
29.774078
24.840203
22.228118
4.944757
12.239376
12.190999
7.222955
2.387354
-9.255211
-13.590994
-8.869979
-4.298795
-16.643986
-4.005804
0.019870
-7.367572
-1.734506
3.299740
0.015866
-1.407196
0.013329
-1.173061
0.010942
-0.924592
0.007983
1.954703
0.534045
0.004153
0.821121
0.138998
-0.115570
-0.396263
-0.665739
-0.984444
-1.303149
-1.621854
-2.613449
-2.245099
-3.424845
-2.832933
-3.137473
-5.764151
-2.506654
-4.044011
-1.430798
-0.015876
-5.000126
-5.262172
-0.018978
3.791896
51.790503
82.981635
106.907736
112.165467
108.501679
101.424488
111.989356
104.276969
100.583042
76.700483
62.026633
52.049070
49.804372
32.364028
27.329097
27.329097
17.299872
9.799664
-0.025134
-7.344378
-14.493936
-2.405262
-4.710618
-6.891108
-4.497789
-8.651743
-8.406438
-10.149149
-5.864170
-9.312228
-12.353204
3.319079
29.576061
35.922533
39.652866
31.306656
26.414160
22.338228
15.592213
11.135232
2.817467
0.440097
1.620044
0.195599
0.135759
-0.091259
-0.331415
-0.552359
0.805525
-2.032102
0.006292
2.165433
-0.812303
0.912023
-1.005823
-1.115722
3.684143
-3.940383
-1.400029
1.543611
-4.965171
-5.253843
0.018800
9.506076
59.619295
94.737211
114.599287
105.345141
111.544572
117.468815
112.993962
115.195896
95.202317
80.958044
69.101239
47.311228
34.630966
39.535874
29.890043
22.271617
17.361906
0.025291
2.462949
-4.807925
-4.750288
0.024321
0.023674
-8.995179
0.022630
0.022108
-4.140291
-3.972182
1.931342
-9.117920
-8.636128
-4.878569
1.543611
1.424121
1.297316
-1.168283
-2.084555
0.924216
0.007908
0.648658
1.028742
-0.384649
0.792054
0.399660
0.084660
-0.304540
-0.221037
-0.335120
-0.004532
-2.746518
-1.295893
-3.047452
-0.008750
-1.882355
2.064477
-3.449095
-1.262049
-5.377856
-7.166879
-6.198686
-6.651558
7.068149
-3.693768
11.484939
60.114310
95.540312
107.495788
112.045504
106.351195
106.468479
121.282660
104.378111
97.940909
83.565827
57.062543
44.863785
39.725693
29.844210
19.925084
17.349207
9.874758
14.697904
14.599260
2.403072
-9.670706
-7.160237
-9.359356
4.526868
-2.241267
-4.327526
-6.282028
-6.048311
1.911746
-9.253290
-5.276337
-6.679863
-4.646009
-1.445058
-3.937776
-4.802331
-4.330589
-2.840015
-0.815222
3.334003
0.556525
-0.004484
0.302713
-0.383092
-0.000509
-0.069285
-0.879271
0.290189
-0.403762
-2.565544
-1.248812
-1.436134
2.470628
2.761291
1.029074
4.530357
0.012832
4.003871
1.436314
4.621528
1.697240
-22.858430
-43.894734
-39.874877
11.925773
41.395135
53.610381
67.968724
63.016003
72.010917
82.905099
101.002539
82.999874
76.202821
51.781414
39.651815
39.690462
27.428100
24.864366
22.336866
17.243452
7.411885
16.989623
-2.398684
-2.362847
-9.312996
-2.281616
-8.985549
-4.380448
-8.532900
-6.163163
0.020466
0.019521
1.838677
-6.837877
0.016587
-6.019258
2.809632
-2.521639
1.160756
-2.065343
0.899830
0.763270
1.266518
-1.974317
0.003954
-0.243691
0.435611
-0.066044
0.123414
-1.214126
-0.003660
-2.310375
-3.393702
-1.343188
-2.330087
-4.337848
-3.839978
-5.292646
-8.131014
-5.094811
-2.733672
-5.783554
-0.016142
-6.727037
-5.340078
-1.863365
13.451802
60.396536
98.170334
108.083839
108.572817
108.727489
104.682563
100.468194
84.872017
102.937914
91.463687
52.147835
52.295982
44.821461
32.302907
32.455711
14.867007
19.774706
-4.951824
2.412386
2.398414
-4.833586
-14.267689
-6.997343
-0.023341
-6.678639
-8.614004
-6.232452
-4.039024
-9.642281
-5.531301
-3.514045
-1.654212
-4.575186
-1.411784
-3.859871
3.502860
3.151168
1.811684
2.335240
-1.940559
0.519268
-1.225243
0.277098
-0.154488
-0.056754
-0.177716
0.202401
-0.945403
-1.277377
-1.573266
0.006714
0.007809
0.008778
-3.765648
-3.153749
-1.142003
-1.251903
1.372911
-2.877070
1.585066
3.396791
-1.758398
-5.535299
28.805234
73.972274
102.097421
107.440118
105.692814
110.970314
108.598014
114.036984
109.084457
90.499896
69.168853
59.291091
54.458624
37.247522
27.242057
32.316061
19.935344
32.159035
7.411885
14.653322
0.024868
-2.367625
0.024197
-16.146982
-47.272249
-48.356453
-61.650615
-36.824610
-31.688594
-15.158949
-18.061525
-13.673912
-3.194076
-5.951843
-5.479933
1.263176
-4.536113
-3.023847
1.771184
2.209032
-0.602060
0.004800
0.360907
0.002412
0.189250
-0.000291
-0.834285
-0.786139
-1.490704
1.448974
-1.749336
-3.430200
0.782395
-3.538063
-2.917921
-1.100431
-2.378957
-3.859871
-2.743131
-5.877902
-3.197166
1.678890
-7.198779
-11.199217
27.120672
62.847734
98.501990
114.570228
108.803333
104.412686
109.446656
105.046791
99.715115
98.505410
69.077815
59.206099
49.757343
39.913788
22.440197
32.425150
29.844210
17.234093
12.255983
-0.025207
-4.857234
-0.024698
-0.024213
4.592407
-11.316125
-2.224629
-0.022056
-6.225369
-6.012899
-1.937044
-5.467560
-0.017790
-3.272839
2.996066
-0.014324
-0.013113
-4.632504
-0.010834
-3.613542
-0.770064
1.278009
2.036903
-0.004169
1.326558
0.422031
0.084406
0.001044
-0.224578
-0.667634
0.004601
0.543800
0.006764
-1.493771
0.008828
-1.897233
-2.113374
-1.161116
0.013155
-1.349857
-4.330091
-4.727016
-8.503635
